'sample #','MLII','V1'
0,874,900
1,874,900
2,874,900
3,874,900
4,874,900
5,874,900
6,874,900
7,872,900
8,870,898
9,869,901
10,869,900
11,867,903
12,868,905
13,872,905
14,870,906
15,870,907
16,870,905
17,868,901
18,868,901
19,866,900
20,866,899
21,864,897
22,865,899
23,865,901
24,867,902
25,867,902
26,871,905
27,868,900
28,865,898
29,866,899
30,864,898
31,860,896
32,862,895
33,861,897
34,863,897
35,865,898
36,864,900
37,866,902
38,867,903
39,869,904
40,870,904
41,865,901
42,863,899
43,866,896
44,864,900
45,865,896
46,867,900
47,865,903
48,868,902
49,873,904
50,874,903
51,875,902
52,876,900
53,878,900
54,881,897
55,882,899
56,882,900
57,880,901
58,881,899
59,880,902
60,886,901
61,887,904
62,888,903
63,889,902
64,888,899
65,892,899
66,890,897
67,890,897
68,889,893
69,886,895
70,882,894
71,882,897
72,880,899
73,876,896
74,877,899
75,874,897
76,874,895
77,875,890
78,874,889
79,872,890
80,868,888
81,864,887
82,860,890
83,858,894
84,859,899
85,858,903
86,858,904
87,856,906
88,855,906
89,855,903
90,851,901
91,851,898
92,852,894
93,850,897
94,851,897
95,850,900
96,854,900
97,852,902
98,853,904
99,855,901
100,855,902
101,855,902
102,852,899
103,853,896
104,851,897
105,851,897
106,852,898
107,852,899
108,852,902
109,853,906
110,855,905
111,855,906
112,858,906
113,857,904
114,857,903
115,858,902
116,864,902
117,872,900
118,886,902
119,904,903
120,929,899
121,955,895
122,980,891
123,999,886
124,1015,880
125,1015,876
126,995,870
127,966,866
128,935,862
129,896,861
130,855,864
131,818,877
132,794,894
133,786,915
134,789,939
135,793,955
136,802,961
137,807,954
138,812,940
139,816,923
140,819,907
141,819,903
142,824,900
143,829,901
144,832,900
145,833,901
146,835,904
147,836,901
148,835,901
149,832,900
150,832,898
151,831,897
152,828,896
153,828,896
154,830,899
155,830,900
156,830,900
157,833,899
158,834,901
159,833,901
160,835,900
161,833,897
162,831,895
163,831,893
164,830,893
165,829,893
166,829,897
167,828,896
168,831,898
169,831,900
170,829,899
171,828,899
172,829,897
173,829,896
174,828,894
175,826,893
176,825,894
177,824,892
178,821,892
179,822,896
180,822,895
181,822,896
182,826,898
183,826,896
184,826,896
185,822,893
186,820,891
187,818,891
188,817,890
189,815,890
190,816,890
191,816,892
192,816,891
193,817,892
194,818,893
195,819,893
196,816,892
197,816,889
198,814,887
199,812,888
200,811,887
201,808,887
202,810,887
203,810,889
204,810,891
205,813,893
206,812,893
207,812,894
208,812,894
209,812,893
210,810,890
211,810,887
212,809,887
213,811,888
214,811,888
215,811,889
216,813,889
217,813,892
218,815,891
219,816,888
220,818,888
221,821,888
222,819,888
223,822,887
224,820,883
225,823,883
226,824,883
227,831,888
228,835,887
229,841,889
230,845,887
231,849,887
232,853,886
233,856,884
234,859,883
235,863,883
236,864,881
237,867,882
238,869,884
239,873,886
240,876,889
241,880,889
242,882,889
243,884,893
244,886,891
245,885,890
246,883,887
247,882,887
248,880,887
249,883,890
250,881,892
251,882,893
252,882,898
253,881,899
254,881,899
255,882,898
256,880,899
257,881,898
258,878,897
259,876,894
260,872,891
261,875,892
262,874,892
263,871,895
264,874,897
265,875,897
266,875,898
267,875,898
268,873,896
269,871,894
270,869,896
271,870,894
272,866,893
273,866,892
274,865,897
275,867,895
276,867,898
277,866,897
278,866,900
279,866,899
280,870,897
281,866,896
282,865,895
283,864,893
284,865,892
285,864,891
286,863,891
287,865,892
288,865,894
289,866,895
290,868,895
291,866,894
292,867,893
293,865,892
294,866,889
295,863,888
296,859,887
297,860,889
298,862,890
299,863,891
300,865,892
301,867,893
302,868,897
303,868,895
304,867,895
305,866,896
306,866,892
307,863,891
308,861,889
309,862,891
310,864,893
311,866,895
312,868,895
313,872,896
314,874,898
315,875,897
316,877,899
317,880,898
318,882,897
319,882,892
320,881,894
321,883,895
322,882,895
323,882,895
324,883,897
325,885,898
326,889,899
327,890,895
328,892,897
329,893,893
330,893,893
331,890,891
332,887,888
333,882,887
334,880,888
335,874,888
336,875,890
337,875,892
338,876,890
339,875,890
340,875,888
341,873,889
342,868,884
343,864,884
344,858,883
345,855,886
346,856,890
347,854,893
348,854,899
349,854,900
350,856,901
351,856,900
352,853,897
353,854,898
354,850,895
355,851,892
356,849,890
357,849,894
358,851,894
359,849,895
360,852,895
361,852,897
362,853,896
363,853,897
364,852,899
365,853,896
366,852,894
367,852,895
368,850,893
369,851,894
370,855,895
371,853,898
372,857,900
373,864,903
374,872,904
375,883,901
376,899,900
377,918,895
378,941,892
379,965,883
380,986,878
381,1003,873
382,1013,872
383,1005,871
384,987,869
385,962,865
386,938,864
387,909,863
388,879,864
389,846,866
390,814,873
391,792,887
392,782,904
393,785,925
394,792,943
395,799,955
396,805,957
397,807,945
398,813,933
399,817,919
400,820,906
401,823,901
402,826,899
403,828,896
404,829,895
405,829,894
406,831,894
407,829,894
408,831,896
409,833,898
410,832,900
411,833,898
412,833,897
413,831,895
414,828,895
415,828,891
416,827,891
417,827,892
418,826,892
419,828,895
420,827,894
421,827,892
422,828,896
423,832,894
424,829,894
425,828,893
426,827,893
427,825,891
428,824,892
429,822,892
430,823,893
431,822,895
432,824,894
433,823,898
434,823,896
435,824,895
436,823,896
437,822,896
438,819,891
439,818,889
440,817,889
441,816,889
442,815,890
443,813,894
444,815,893
445,818,896
446,818,895
447,818,893
448,816,891
449,815,891
450,813,888
451,810,886
452,806,885
453,807,885
454,805,884
455,805,887
456,807,885
457,807,890
458,809,892
459,809,890
460,809,890
461,808,887
462,804,884
463,804,886
464,805,885
465,803,886
466,803,887
467,801,886
468,804,889
469,804,890
470,806,891
471,806,890
472,809,888
473,809,887
474,808,883
475,807,884
476,808,882
477,808,884
478,808,883
479,811,884
480,812,885
481,816,887
482,815,888
483,820,888
484,822,889
485,827,885
486,827,882
487,829,877
488,831,879
489,834,878
490,839,880
491,841,883
492,849,882
493,852,883
494,858,885
495,863,885
496,867,883
497,868,882
498,871,882
499,871,882
500,870,882
501,871,882
502,874,883
503,875,885
504,877,890
505,877,891
506,878,894
507,878,893
508,878,891
509,876,892
510,873,890
511,871,887
512,869,890
513,868,887
514,870,889
515,869,890
516,869,892
517,870,892
518,870,895
519,869,892
520,866,892
521,866,893
522,863,890
523,863,891
524,862,887
525,861,889
526,861,891
527,861,892
528,862,894
529,864,893
530,865,897
531,863,895
532,864,894
533,861,891
534,859,892
535,857,892
536,858,891
537,855,888
538,855,889
539,857,891
540,857,893
541,857,896
542,858,894
543,856,895
544,859,894
545,860,892
546,859,889
547,859,889
548,856,888
549,855,887
550,853,886
551,853,888
552,857,888
553,858,891
554,856,889
555,859,889
556,858,891
557,858,890
558,857,888
559,856,889
560,856,888
561,856,887
562,855,887
563,853,890
564,856,889
565,857,890
566,859,892
567,860,892
568,860,890
569,858,891
570,861,890
571,860,886
572,859,886
573,861,887
574,862,889
575,866,889
576,867,892
577,872,896
578,875,897
579,877,898
580,878,894
581,878,894
582,874,892
583,875,889
584,874,888
585,873,889
586,876,887
587,877,891
588,880,891
589,880,891
590,884,893
591,884,892
592,880,889
593,873,886
594,870,887
595,866,885
596,862,882
597,859,882
598,859,883
599,861,885
600,864,883
601,862,885
602,861,885
603,857,883
604,855,884
605,851,887
606,850,889
607,846,891
608,845,890
609,843,894
610,843,895
611,844,894
612,843,895
613,844,895
614,843,897
615,845,895
616,845,894
617,843,892
618,840,891
619,841,890
620,841,888
621,838,888
622,838,887
623,842,892
624,838,895
625,845,894
626,842,896
627,846,897
628,848,898
629,844,896
630,843,893
631,845,894
632,845,894
633,845,896
634,845,898
635,846,899
636,850,900
637,858,901
638,871,903
639,885,899
640,903,898
641,926,889
642,951,883
643,976,877
644,995,871
645,1003,867
646,994,864
647,971,862
648,942,859
649,911,860
650,873,861
651,835,866
652,800,875
653,775,891
654,770,909
655,773,931
656,779,946
657,785,951
658,794,946
659,797,934
660,801,922
661,806,911
662,812,905
663,815,900
664,819,898
665,820,895
666,824,893
667,823,892
668,823,893
669,822,892
670,821,892
671,820,893
672,821,893
673,821,895
674,823,896
675,825,897
676,823,894
677,823,891
678,821,889
679,819,890
680,816,889
681,816,889
682,816,888
683,816,890
684,816,893
685,817,894
686,817,897
687,821,895
688,820,892
689,819,894
690,815,891
691,813,892
692,812,889
693,810,888
694,811,890
695,813,891
696,814,891
697,816,893
698,816,895
699,815,896
700,815,893
701,814,893
702,810,892
703,809,890
704,808,887
705,806,886
706,805,888
707,805,890
708,807,893
709,808,893
710,807,895
711,811,892
712,808,888
713,807,887
714,802,888
715,802,886
716,799,883
717,797,883
718,798,883
719,796,884
720,796,887
721,798,888
722,797,890
723,800,888
724,800,887
725,799,885
726,799,883
727,797,881
728,796,879
729,796,879
730,797,882
731,798,883
732,800,885
733,801,885
734,802,886
735,806,887
736,803,887
737,805,884
738,805,880
739,808,879
740,811,878
741,811,878
742,817,877
743,821,877
744,827,879
745,831,881
746,836,883
747,840,881
748,843,879
749,848,878
750,849,877
751,852,876
752,854,876
753,856,876
754,859,878
755,862,879
756,865,883
757,867,884
758,871,887
759,869,886
760,870,887
761,868,886
762,871,885
763,868,885
764,868,884
765,866,884
766,864,887
767,867,886
768,867,889
769,865,890
770,866,892
771,867,891
772,865,891
773,865,889
774,862,888
775,861,888
776,856,886
777,855,889
778,856,888
779,855,891
780,855,890
781,857,892
782,856,895
783,858,891
784,857,892
785,855,890
786,854,893
787,853,890
788,849,887
789,849,886
790,849,887
791,852,888
792,849,890
793,854,891
794,852,894
795,852,893
796,850,890
797,849,887
798,847,886
799,846,886
800,845,885
801,843,883
802,845,885
803,846,885
804,848,887
805,851,888
806,850,889
807,851,891
808,851,886
809,851,884
810,849,882
811,848,884
812,845,885
813,845,882
814,847,884
815,846,886
816,848,887
817,850,888
818,849,890
819,850,890
820,850,891
821,853,886
822,853,884
823,853,888
824,852,885
825,854,882
826,855,886
827,858,888
828,861,891
829,864,892
830,868,895
831,870,896
832,869,893
833,871,893
834,870,892
835,868,889
836,866,885
837,866,887
838,868,885
839,870,888
840,873,885
841,874,888
842,875,888
843,877,888
844,871,887
845,866,883
846,861,883
847,858,882
848,856,881
849,855,878
850,858,879
851,856,880
852,856,880
853,855,884
854,850,886
855,847,886
856,845,888
857,843,891
858,840,890
859,839,892
860,834,890
861,832,888
862,835,889
863,833,888
864,835,888
865,837,889
866,841,893
867,841,894
868,840,891
869,839,890
870,838,890
871,837,888
872,833,885
873,834,884
874,835,887
875,837,889
876,837,891
877,841,892
878,843,895
879,844,897
880,844,894
881,842,896
882,843,894
883,844,894
884,849,893
885,856,891
886,872,893
887,890,888
888,913,888
889,941,885
890,967,882
891,988,877
892,1001,870
893,1000,868
894,984,863
895,960,859
896,929,855
897,901,853
898,871,854
899,838,860
900,806,868
901,786,883
902,779,899
903,780,923
904,783,941
905,789,952
906,791,949
907,796,941
908,795,928
909,799,913
910,801,901
911,807,897
912,811,895
913,817,896
914,821,896
915,821,893
916,822,892
917,822,892
918,821,889
919,819,888
920,816,887
921,816,887
922,814,885
923,815,888
924,820,889
925,822,890
926,821,892
927,824,890
928,823,892
929,822,888
930,820,887
931,819,884
932,818,880
933,816,882
934,816,882
935,818,881
936,818,885
937,818,888
938,818,889
939,818,889
940,817,889
941,814,887
942,815,885
943,811,885
944,811,881
945,810,881
946,811,882
947,811,883
948,812,887
949,810,888
950,811,886
951,815,886
952,813,886
953,812,885
954,809,883
955,807,881
956,806,883
957,804,881
958,805,884
959,801,882
960,803,884
961,805,887
962,805,887
963,805,886
964,804,886
965,804,883
966,802,878
967,802,878
968,800,876
969,798,877
970,797,875
971,797,881
972,795,881
973,796,880
974,797,880
975,798,881
976,799,880
977,798,880
978,795,880
979,795,879
980,794,875
981,795,874
982,794,876
983,796,877
984,800,879
985,801,881
986,802,883
987,806,881
988,807,881
989,806,880
990,808,877
991,808,878
992,808,876
993,810,875
994,809,873
995,813,874
996,818,877
997,825,876
998,827,878
999,839,875
1000,843,874
1001,847,873
1002,849,873
1003,850,872
1004,851,874
1005,857,873
1006,860,875
1007,860,878
1008,868,878
1009,870,881
1010,871,883
1011,869,880
1012,869,881
1013,869,880
1014,866,878
1015,865,878
1016,866,877
1017,866,879
1018,866,882
1019,865,883
1020,864,886
1021,866,888
1022,864,886
1023,865,886
1024,864,885
1025,862,881
1026,861,884
1027,860,881
1028,859,880
1029,858,881
1030,856,883
1031,853,883
1032,855,883
1033,855,884
1034,856,881
1035,858,883
1036,857,884
1037,856,883
1038,857,881
1039,856,881
1040,855,880
1041,852,883
1042,852,886
1043,850,886
1044,850,889
1045,852,889
1046,852,891
1047,852,889
1048,851,887
1049,849,886
1050,849,882
1051,847,883
1052,848,880
1053,848,881
1054,849,884
1055,850,885
1056,850,886
1057,851,889
1058,851,886
1059,851,884
1060,848,883
1061,847,881
1062,846,883
1063,845,882
1064,846,878
1065,846,881
1066,843,882
1067,846,883
1068,845,886
1069,849,886
1070,851,887
1071,851,888
1072,851,888
1073,850,888
1074,850,886
1075,847,882
1076,847,882
1077,846,883
1078,844,884
1079,850,886
1080,853,889
1081,857,890
1082,861,893
1083,861,891
1084,863,891
1085,862,890
1086,862,890
1087,861,888
1088,860,885
1089,858,886
1090,860,886
1091,861,885
1092,864,888
1093,867,887
1094,870,887
1095,871,884
1096,871,882
1097,868,882
1098,866,879
1099,861,878
1100,855,877
1101,849,877
1102,849,880
1103,851,883
1104,855,881
1105,855,883
1106,854,881
1107,852,880
1108,846,878
1109,842,878
1110,837,878
1111,834,879
1112,830,882
1113,830,886
1114,829,892
1115,829,894
1116,830,894
1117,832,896
1118,832,892
1119,830,893
1120,832,892
1121,829,888
1122,828,889
1123,829,889
1124,829,884
1125,829,886
1126,830,888
1127,830,886
1128,827,890
1129,830,891
1130,829,890
1131,832,890
1132,831,889
1133,831,890
1134,829,886
1135,827,886
1136,827,886
1137,829,888
1138,830,888
1139,831,893
1140,833,896
1141,841,899
1142,852,897
1143,864,895
1144,883,892
1145,904,887
1146,931,880
1147,954,873
1148,978,869
1149,987,864
1150,983,865
1151,964,864
1152,936,867
1153,907,871
1154,871,881
1155,827,890
1156,793,906
1157,774,923
1158,768,947
1159,773,968
1160,775,982
1161,778,980
1162,779,965
1163,783,943
1164,787,922
1165,793,908
1166,799,897
1167,805,892
1168,807,890
1169,809,888
1170,807,887
1171,805,885
1172,806,883
1173,803,884
1174,802,885
1175,803,884
1176,805,886
1177,804,887
1178,807,885
1179,806,885
1180,807,886
1181,805,883
1182,803,883
1183,803,881
1184,804,881
1185,799,880
1186,798,880
1187,800,883
1188,800,884
1189,801,885
1190,802,883
1191,799,883
1192,799,883
1193,799,882
1194,797,883
1195,795,879
1196,796,878
1197,793,878
1198,794,881
1199,797,880
1200,800,881
1201,801,882
1202,801,884
1203,799,884
1204,801,882
1205,797,882
1206,792,882
1207,791,879
1208,790,877
1209,791,879
1210,789,880
1211,789,881
1212,791,882
1213,791,881
1214,792,882
1215,794,880
1216,794,878
1217,790,876
1218,788,876
1219,785,873
1220,785,871
1221,780,870
1222,781,872
1223,780,872
1224,781,876
1225,781,877
1226,783,878
1227,780,878
1228,779,877
1229,778,876
1230,778,875
1231,777,873
1232,779,875
1233,779,871
1234,779,874
1235,782,874
1236,784,876
1237,782,878
1238,785,876
1239,786,877
1240,787,874
1241,784,872
1242,790,871
1243,789,870
1244,788,866
1245,791,867
1246,795,871
1247,799,871
1248,802,873
1249,810,874
1250,815,873
1251,817,870
1252,820,869
1253,824,868
1254,825,866
1255,828,863
1256,830,866
1257,832,867
1258,837,868
1259,841,874
1260,842,875
1261,846,877
1262,847,879
1263,850,878
1264,850,879
1265,849,880
1266,847,877
1267,846,878
1268,844,877
1269,842,879
1270,841,882
1271,840,884
1272,843,884
1273,847,888
1274,848,889
1275,846,888
1276,847,888
1277,844,887
1278,843,884
1279,841,882
1280,838,882
1281,835,880
1282,837,884
1283,837,883
1284,839,884
1285,841,887
1286,841,887
1287,838,888
1288,838,888
1289,836,884
1290,834,882
1291,832,881
1292,833,884
1293,832,882
1294,834,882
1295,834,883
1296,835,887
1297,836,887
1298,837,887
1299,834,884
1300,832,884
1301,834,882
1302,831,884
1303,831,881
1304,832,881
1305,830,881
1306,832,881
1307,834,884
1308,833,884
1309,835,886
1310,836,884
1311,835,884
1312,835,886
1313,832,881
1314,833,881
1315,833,880
1316,833,882
1317,834,880
1318,833,881
1319,838,881
1320,840,883
1321,840,885
1322,842,886
1323,843,886
1324,842,885
1325,844,884
1326,845,884
1327,847,882
1328,848,885
1329,847,887
1330,851,890
1331,851,891
1332,851,895
1333,851,893
1334,853,891
1335,854,889
1336,856,888
1337,859,886
1338,859,885
1339,862,883
1340,862,881
1341,859,881
1342,857,883
1343,858,880
1344,858,879
1345,857,880
1346,858,879
1347,857,879
1348,855,879
1349,852,876
1350,847,877
1351,847,878
1352,845,876
1353,842,876
1354,842,882
1355,840,882
1356,837,886
1357,838,890
1358,840,890
1359,837,890
1360,835,889
1361,833,887
1362,833,885
1363,828,884
1364,827,883
1365,827,884
1366,828,884
1367,831,888
1368,830,890
1369,833,889
1370,835,890
1371,834,889
1372,832,890
1373,831,888
1374,831,885
1375,829,884
1376,830,884
1377,830,883
1378,831,887
1379,834,886
1380,835,887
1381,835,890
1382,841,892
1383,841,891
1384,845,889
1385,856,888
1386,869,886
1387,884,884
1388,905,880
1389,929,877
1390,955,872
1391,980,871
1392,998,867
1393,1005,865
1394,1001,865
1395,981,861
1396,952,858
1397,924,855
1398,893,859
1399,861,863
1400,827,871
1401,796,885
1402,776,899
1403,773,925
1404,782,951
1405,790,973
1406,794,982
1407,792,972
1408,788,953
1409,788,932
1410,790,909
1411,796,898
1412,802,889
1413,807,885
1414,812,887
1415,815,888
1416,817,888
1417,816,890
1418,818,889
1419,816,891
1420,816,889
1421,815,888
1422,813,887
1423,812,887
1424,813,884
1425,812,886
1426,810,888
1427,811,889
1428,811,889
1429,812,890
1430,816,889
1431,815,887
1432,815,888
1433,812,885
1434,811,884
1435,812,881
1436,809,884
1437,806,883
1438,807,883
1439,806,883
1440,807,884
1441,808,887
1442,812,888
1443,810,886
1444,809,885
1445,808,882
1446,804,879
1447,804,880
1448,803,879
1449,803,881
1450,802,879
1451,804,885
1452,802,885
1453,803,888
1454,806,885
1455,803,884
1456,804,884
1457,802,881
1458,800,881
1459,799,879
1460,797,879
1461,795,878
1462,795,879
1463,797,883
1464,796,882
1465,798,882
1466,799,883
1467,797,882
1468,795,880
1469,794,877
1470,792,879
1471,791,874
1472,786,871
1473,789,873
1474,789,875
1475,791,875
1476,792,877
1477,793,876
1478,797,878
1479,796,876
1480,795,876
1481,792,873
1482,796,872
1483,795,871
1484,795,870
1485,794,873
1486,799,873
1487,801,873
1488,803,874
1489,807,875
1490,809,876
1491,813,878
1492,815,874
1493,816,874
1494,817,872
1495,822,872
1496,825,871
1497,826,873
1498,830,870
1499,834,872
1500,836,874
1501,845,876
1502,848,877
1503,853,876
1504,853,877
1505,856,875
1506,860,875
1507,858,875
1508,859,875
1509,860,878
1510,863,880
1511,865,883
1512,866,886
1513,867,887
1514,867,890
1515,868,890
1516,866,891
1517,863,892
1518,863,889
1519,861,888
1520,860,889
1521,855,890
1522,857,888
1523,860,892
1524,862,895
1525,861,897
1526,863,896
1527,863,895
1528,862,894
1529,861,894
1530,858,888
1531,855,887
1532,854,889
1533,852,889
1534,854,892
1535,853,892
1536,855,893
1537,857,894
1538,857,894
1539,858,892
1540,857,893
1541,855,889
1542,855,889
1543,853,889
1544,852,885
1545,852,887
1546,852,888
1547,853,891
1548,854,893
1549,854,893
1550,855,897
1551,856,893
1552,853,894
1553,853,894
1554,850,890
1555,851,891
1556,851,888
1557,851,887
1558,851,888
1559,851,892
1560,854,893
1561,855,895
1562,857,897
1563,855,894
1564,853,895
1565,855,891
1566,854,890
1567,854,888
1568,852,888
1569,853,890
1570,851,889
1571,853,892
1572,855,892
1573,857,898
1574,855,892
1575,857,891
1576,855,894
1577,856,893
1578,857,890
1579,858,892
1580,859,891
1581,861,893
1582,861,897
1583,866,898
1584,867,901
1585,872,901
1586,871,903
1587,871,901
1588,869,900
1589,869,896
1590,870,895
1591,869,893
1592,868,889
1593,871,890
1594,872,890
1595,873,893
1596,876,893
1597,875,895
1598,873,894
1599,868,893
1600,865,893
1601,859,887
1602,858,886
1603,856,885
1604,856,883
1605,856,884
1606,855,882
1607,851,885
1608,850,887
1609,849,893
1610,849,892
1611,846,897
1612,845,896
1613,843,896
1614,838,898
1615,838,893
1616,835,893
1617,836,893
1618,833,895
1619,834,896
1620,837,898
1621,835,901
1622,839,900
1623,840,899
1624,838,899
1625,836,894
1626,834,893
1627,832,894
1628,832,891
1629,831,892
1630,835,893
1631,835,893
1632,834,896
1633,838,900
1634,839,901
1635,842,898
1636,841,900
1637,841,900
1638,841,895
1639,844,896
1640,852,896
1641,863,895
1642,878,896
1643,897,895
1644,924,895
1645,951,891
1646,976,889
1647,998,885
1648,1012,882
1649,1010,882
1650,991,875
1651,961,871
1652,929,869
1653,893,872
1654,855,876
1655,822,889
1656,799,903
1657,789,922
1658,789,943
1659,796,956
1660,804,959
1661,810,949
1662,815,935
1663,817,922
1664,817,907
1665,815,901
1666,813,896
1667,811,896
1668,813,897
1669,813,897
1670,817,897
1671,818,896
1672,816,898
1673,817,898
1674,815,893
1675,815,891
1676,810,891
1677,812,892
1678,811,893
1679,809,895
1680,813,896
1681,815,898
1682,812,899
1683,811,897
1684,814,894
1685,813,895
1686,810,893
1687,806,894
1688,807,892
1689,807,891
1690,808,893
1691,807,895
1692,810,896
1693,811,897
1694,813,897
1695,810,897
1696,808,896
1697,807,893
1698,806,894
1699,804,889
1700,802,889
1701,803,891
1702,801,891
1703,801,893
1704,803,894
1705,804,894
1706,803,899
1707,802,895
1708,800,894
1709,798,893
1710,797,893
1711,795,891
1712,792,892
1713,793,892
1714,794,890
1715,796,893
1716,796,892
1717,795,895
1718,796,896
1719,795,892
1720,794,891
1721,791,890
1722,787,890
1723,786,888
1724,784,886
1725,784,887
1726,783,889
1727,783,890
1728,786,890
1729,787,891
1730,789,889
1731,788,891
1732,787,890
1733,786,888
1734,786,886
1735,787,885
1736,786,882
1737,786,884
1738,787,885
1739,790,885
1740,791,888
1741,794,892
1742,797,892
1743,798,892
1744,800,890
1745,802,889
1746,803,888
1747,804,887
1748,805,886
1749,808,884
1750,812,885
1751,818,884
1752,822,886
1753,827,887
1754,832,886
1755,835,887
1756,840,887
1757,844,884
1758,847,882
1759,848,883
1760,849,881
1761,851,885
1762,854,882
1763,857,886
1764,859,887
1765,865,889
1766,864,891
1767,865,891
1768,864,890
1769,863,890
1770,864,890
1771,862,890
1772,856,890
1773,859,892
1774,857,896
1775,858,897
1776,858,900
1777,859,901
1778,859,902
1779,857,901
1780,857,901
1781,857,898
1782,856,897
1783,853,897
1784,851,893
1785,851,894
1786,851,894
1787,851,895
1788,853,897
1789,853,899
1790,854,901
1791,853,901
1792,850,898
1793,850,896
1794,850,895
1795,849,894
1796,845,893
1797,845,894
1798,843,893
1799,843,894
1800,843,897
1801,845,899
1802,846,898
1803,847,897
1804,847,899
1805,846,894
1806,843,897
1807,841,893
1808,840,893
1809,841,895
1810,844,896
1811,845,899
1812,846,901
1813,847,898
1814,847,899
1815,848,901
1816,846,898
1817,847,899
1818,845,897
1819,846,894
1820,845,894
1821,846,894
1822,849,898
1823,851,901
1824,853,898
1825,855,903
1826,856,904
1827,858,907
1828,859,904
1829,856,902
1830,856,904
1831,854,902
1832,855,898
1833,857,897
1834,861,899
1835,863,900
1836,866,900
1837,869,898
1838,870,902
1839,871,899
1840,868,898
1841,865,895
1842,861,893
1843,857,887
1844,855,889
1845,854,886
1846,851,887
1847,851,888
1848,850,889
1849,849,892
1850,845,893
1851,843,896
1852,843,896
1853,842,896
1854,837,899
1855,833,898
1856,830,897
1857,829,895
1858,828,898
1859,830,896
1860,830,898
1861,832,898
1862,831,900
1863,831,898
1864,832,900
1865,831,896
1866,830,898
1867,827,894
1868,826,891
1869,826,892
1870,824,894
1871,826,896
1872,825,899
1873,827,900
1874,831,901
1875,833,900
1876,831,901
1877,832,901
1878,829,897
1879,828,900
1880,828,897
1881,828,899
1882,834,899
1883,841,904
1884,854,904
1885,869,902
1886,890,900
1887,916,896
1888,946,890
1889,972,886
1890,992,880
1891,1000,876
1892,994,878
1893,973,874
1894,950,873
1895,923,872
1896,901,873
1897,873,876
1898,848,881
1899,819,890
1900,797,899
1901,785,914
1902,782,933
1903,787,946
1904,791,955
1905,799,952
1906,804,945
1907,808,931
1908,811,921
1909,810,915
1910,809,910
1911,808,905
1912,804,902
1913,805,901
1914,806,895
1915,806,896
1916,806,895
1917,806,892
1918,805,893
1919,805,895
1920,807,899
1921,806,899
1922,804,900
1923,805,897
1924,803,896
1925,804,893
1926,805,890
1927,803,889
1928,800,888
1929,801,888
1930,801,890
1931,802,889
1932,802,892
1933,802,895
1934,801,893
1935,803,895
1936,803,895
1937,802,893
1938,801,891
1939,800,891
1940,797,890
1941,796,893
1942,795,892
1943,796,892
1944,797,896
1945,798,895
1946,796,899
1947,798,897
1948,799,897
1949,799,894
1950,795,893
1951,792,891
1952,791,891
1953,790,887
1954,789,891
1955,791,893
1956,791,894
1957,790,895
1958,793,896
1959,791,893
1960,789,892
1961,788,890
1962,784,889
1963,782,887
1964,781,885
1965,777,885
1966,777,887
1967,778,888
1968,778,890
1969,779,891
1970,783,892
1971,779,893
1972,778,891
1973,776,888
1974,776,890
1975,774,888
1976,775,888
1977,773,889
1978,773,888
1979,774,890
1980,775,889
1981,776,891
1982,776,895
1983,778,894
1984,778,891
1985,773,888
1986,777,887
1987,777,886
1988,777,886
1989,777,886
1990,779,887
1991,783,888
1992,786,888
1993,788,888
1994,792,890
1995,795,888
1996,795,886
1997,798,889
1998,797,886
1999,799,883
2000,803,885
2001,806,883
2002,810,883
2003,816,887
2004,822,887
2005,828,889
2006,831,892
2007,833,891
2008,836,890
2009,838,889
2010,838,886
2011,838,889
2012,838,886
2013,838,888
2014,841,891
2015,842,895
2016,844,893
2017,843,895
2018,846,899
2019,846,898
2020,846,897
2021,843,896
2022,840,896
2023,839,893
2024,839,893
2025,835,893
2026,836,893
2027,836,894
2028,836,898
2029,834,898
2030,838,899
2031,840,899
2032,835,897
2033,837,899
2034,832,896
2035,830,895
2036,828,893
2037,827,894
2038,828,896
2039,830,898
2040,833,899
2041,833,899
2042,835,903
2043,831,902
2044,830,899
2045,828,896
2046,827,895
2047,825,895
2048,823,893
2049,821,894
2050,827,895
2051,827,894
2052,828,896
2053,828,897
2054,830,899
2055,828,895
2056,829,895
2057,828,894
2058,826,893
2059,827,894
2060,825,892
2061,825,890
2062,824,892
2063,824,896
2064,824,896
2065,824,896
2066,826,897
2067,828,897
2068,829,896
2069,828,897
2070,826,894
2071,827,896
2072,826,894
2073,827,892
2074,826,895
2075,829,897
2076,830,899
2077,831,899
2078,836,901
2079,838,900
2080,841,901
2081,839,902
2082,842,900
2083,843,901
2084,841,899
2085,839,901
2086,840,902
2087,841,901
2088,843,904
2089,841,905
2090,842,904
2091,844,901
2092,843,899
2093,843,897
2094,847,892
2095,848,893
2096,849,892
2097,848,890
2098,846,890
2099,843,893
2100,837,892
2101,835,894
2102,834,894
2103,835,894
2104,834,888
2105,835,890
2106,831,889
2107,828,889
2108,824,890
2109,819,890
2110,815,896
2111,814,897
2112,814,902
2113,815,903
2114,815,903
2115,817,903
2116,814,899
2117,815,899
2118,814,897
2119,812,897
2120,810,896
2121,810,895
2122,811,893
2123,811,897
2124,814,896
2125,815,898
2126,817,899
2127,818,900
2128,817,898
2129,816,897
2130,815,898
2131,813,896
2132,813,897
2133,814,896
2134,816,899
2135,816,902
2136,819,906
2137,824,907
2138,832,908
2139,841,907
2140,852,904
2141,871,899
2142,891,895
2143,911,891
2144,937,886
2145,958,882
2146,973,882
2147,976,881
2148,965,881
2149,945,880
2150,922,880
2151,899,878
2152,870,880
2153,842,880
2154,810,888
2155,785,895
2156,769,910
2157,767,930
2158,770,950
2159,778,962
2160,780,967
2161,784,958
2162,790,948
2163,791,933
2164,791,919
2165,791,910
2166,790,899
2167,792,898
2168,791,897
2169,792,894
2170,791,898
2171,792,899
2172,793,900
2173,792,903
2174,793,901
2175,795,903
2176,794,900
2177,791,899
2178,790,896
2179,790,897
2180,790,894
2181,787,893
2182,788,894
2183,787,894
2184,787,896
2185,787,895
2186,787,898
2187,788,896
2188,789,894
2189,789,894
2190,787,893
2191,786,892
2192,783,893
2193,782,891
2194,783,892
2195,784,893
2196,783,894
2197,784,897
2198,784,898
2199,785,896
2200,784,898
2201,784,896
2202,782,894
2203,779,891
2204,778,891
2205,779,892
2206,776,890
2207,778,892
2208,778,896
2209,779,896
2210,780,897
2211,782,895
2212,778,895
2213,776,891
2214,777,891
2215,771,889
2216,771,890
2217,771,887
2218,771,887
2219,772,888
2220,773,890
2221,772,892
2222,774,891
2223,774,891
2224,772,892
2225,772,889
2226,771,888
2227,771,887
2228,768,886
2229,770,886
2230,768,890
2231,771,889
2232,770,890
2233,770,891
2234,771,894
2235,774,892
2236,773,892
2237,776,888
2238,777,887
2239,775,885
2240,777,886
2241,777,886
2242,777,884
2243,781,888
2244,784,888
2245,788,889
2246,793,891
2247,797,887
2248,798,887
2249,803,885
2250,805,883
2251,808,882
2252,811,881
2253,816,880
2254,818,881
2255,824,883
2256,829,883
2257,834,884
2258,838,890
2259,841,888
2260,843,888
2261,841,886
2262,842,886
2263,842,888
2264,843,888
2265,839,890
2266,840,891
2267,842,893
2268,843,893
2269,844,897
2270,845,898
2271,843,898
2272,843,896
2273,841,897
2274,839,895
2275,839,893
2276,837,893
2277,835,892
2278,836,893
2279,834,897
2280,834,897
2281,836,898
2282,838,901
2283,838,901
2284,838,898
2285,835,898
2286,834,894
2287,834,895
2288,832,895
2289,830,894
2290,830,894
2291,831,895
2292,833,900
2293,833,902
2294,831,901
2295,832,901
2296,831,899
2297,833,899
2298,831,898
2299,830,895
2300,829,895
2301,827,895
2302,827,895
2303,828,896
2304,829,897
2305,830,900
2306,831,902
2307,833,899
2308,831,898
2309,831,898
2310,830,896
2311,826,894
2312,826,892
2313,827,890
2314,826,892
2315,826,894
2316,828,896
2317,829,897
2318,830,897
2319,831,897
2320,832,898
2321,832,898
2322,830,896
2323,832,896
2324,834,897
2325,832,896
2326,839,897
2327,843,901
2328,845,901
2329,849,904
2330,851,905
2331,854,905
2332,854,905
2333,849,903
2334,848,901
2335,847,900
2336,844,898
2337,846,897
2338,848,895
2339,851,899
2340,856,897
2341,857,897
2342,859,899
2343,858,896
2344,852,894
2345,849,893
2346,843,888
2347,841,886
2348,840,884
2349,838,884
2350,839,884
2351,838,885
2352,838,888
2353,838,890
2354,837,895
2355,836,897
2356,831,899
2357,829,900
2358,825,901
2359,824,898
2360,823,899
2361,821,896
2362,821,895
2363,821,898
2364,822,901
2365,823,902
2366,826,904
2367,828,904
2368,827,903
2369,828,901
2370,828,900
2371,825,898
2372,827,897
2373,826,898
2374,827,899
2375,827,901
2376,827,902
2377,827,903
2378,829,903
2379,829,903
2380,830,901
2381,830,903
2382,830,902
2383,828,901
2384,833,902
2385,840,903
2386,854,901
2387,874,900
2388,899,898
2389,928,894
2390,956,890
2391,980,886
2392,985,886
2393,981,879
2394,961,877
2395,932,872
2396,903,871
2397,869,873
2398,834,879
2399,804,890
2400,780,904
2401,774,926
2402,772,947
2403,778,962
2404,786,966
2405,795,959
2406,799,945
2407,802,928
2408,800,916
2409,797,906
2410,801,903
2411,804,902
2412,807,904
2413,811,903
2414,814,904
2415,814,904
2416,814,904
2417,813,902
2418,812,903
2419,809,901
2420,809,898
2421,806,899
2422,807,900
2423,808,902
2424,812,902
2425,812,903
2426,814,905
2427,813,906
2428,814,905
2429,813,905
2430,813,902
2431,810,903
2432,807,899
2433,808,900
2434,807,899
2435,810,901
2436,810,902
2437,813,903
2438,813,906
2439,814,903
2440,812,902
2441,812,901
2442,811,898
2443,807,899
2444,806,898
2445,806,897
2446,807,898
2447,807,900
2448,808,900
2449,806,899
2450,808,903
2451,810,903
2452,806,905
2453,805,900
2454,803,902
2455,801,900
2456,799,901
2457,799,899
2458,798,896
2459,800,900
2460,799,901
2461,801,901
2462,801,903
2463,801,903
2464,800,900
2465,800,900
2466,798,899
2467,798,897
2468,796,896
2469,794,893
2470,794,894
2471,795,894
2472,797,896
2473,796,899
2474,796,897
2475,798,897
2476,800,896
2477,798,895
2478,799,892
2479,798,894
2480,798,890
2481,797,890
2482,796,892
2483,798,892
2484,801,896
2485,801,895
2486,808,895
2487,809,896
2488,808,895
2489,810,896
2490,810,893
2491,815,892
2492,815,893
2493,817,888
2494,820,892
2495,825,893
2496,830,894
2497,834,892
2498,840,892
2499,845,894
2500,849,892
2501,851,891
2502,856,889
2503,853,886
2504,855,887
2505,857,889
2506,860,889
2507,862,892
2508,866,895
2509,868,897
2510,870,897
2511,870,900
2512,869,897
2513,866,898
2514,866,899
2515,863,899
2516,862,898
2517,863,900
2518,862,902
2519,862,902
2520,864,907
2521,863,908
2522,866,907
2523,867,907
2524,863,908
2525,861,905
2526,859,904
2527,858,901
2528,858,899
2529,856,897
2530,854,898
2531,856,903
2532,855,902
2533,855,905
2534,855,909
2535,857,908
2536,855,907
2537,855,905
2538,854,901
2539,852,900
2540,850,901
2541,850,900
2542,848,900
2543,850,899
2544,852,900
2545,851,901
2546,853,903
2547,853,904
2548,853,902
2549,851,903
2550,850,902
2551,848,901
2552,849,897
2553,847,899
2554,847,898
2555,850,900
2556,850,901
2557,851,902
2558,854,902
2559,857,905
2560,855,902
2561,855,901
2562,856,900
2563,857,899
2564,856,899
2565,858,897
2566,860,899
2567,860,903
2568,862,904
2569,864,905
2570,867,910
2571,867,908
2572,865,906
2573,866,904
2574,867,903
2575,867,900
2576,869,898
2577,871,899
2578,875,897
2579,876,899
2580,877,901
2581,874,900
2582,874,900
2583,871,898
2584,869,898
2585,867,894
2586,866,894
2587,862,890
2588,862,892
2589,860,890
2590,856,892
2591,854,897
2592,853,899
2593,851,901
2594,849,903
2595,848,906
2596,848,904
2597,844,905
2598,844,899
2599,841,900
2600,838,898
2601,839,895
2602,837,899
2603,838,899
2604,839,899
2605,839,900
2606,841,903
2607,841,902
2608,840,902
2609,842,901
2610,841,900
2611,838,900
2612,837,899
2613,835,897
2614,838,898
2615,838,901
2616,841,902
2617,845,904
2618,845,907
2619,850,909
2620,852,906
2621,854,907
2622,867,903
2623,878,899
2624,892,895
2625,913,891
2626,937,890
2627,959,887
2628,981,886
2629,994,885
2630,997,884
2631,991,883
2632,971,880
2633,946,880
2634,920,878
2635,898,881
2636,869,879
2637,838,887
2638,809,900
2639,791,917
2640,787,940
2641,793,965
2642,798,985
2643,803,995
2644,801,987
2645,799,968
2646,799,946
2647,801,928
2648,804,914
2649,810,904
2650,814,899
2651,819,902
2652,824,901
2653,827,904
2654,826,905
2655,826,902
2656,825,901
2657,824,900
2658,822,900
2659,819,897
2660,817,897
2661,818,894
2662,818,896
2663,816,897
2664,818,899
2665,820,897
2666,821,900
2667,821,900
2668,823,896
2669,822,896
2670,819,894
2671,818,893
2672,817,892
2673,819,892
2674,820,896
2675,819,896
2676,818,897
2677,817,899
2678,819,902
2679,821,899
2680,817,899
2681,817,895
2682,815,894
2683,814,894
2684,811,892
2685,810,892
2686,810,894
2687,811,894
2688,811,894
2689,812,895
2690,814,897
2691,815,895
2692,815,895
2693,813,893
2694,812,891
2695,813,889
2696,809,890
2697,807,890
2698,809,890
2699,812,890
2700,812,890
2701,811,891
2702,812,891
2703,814,892
2704,809,889
2705,810,890
2706,808,890
2707,807,891
2708,805,890
2709,805,889
2710,802,887
2711,801,887
2712,802,888
2713,802,891
2714,804,891
2715,809,890
2716,809,891
2717,808,889
2718,811,887
2719,808,883
2720,809,881
2721,810,882
2722,810,882
2723,811,884
2724,814,886
2725,815,887
2726,818,890
2727,821,889
2728,822,890
2729,818,887
2730,819,886
2731,821,884
2732,825,881
2733,827,884
2734,828,883
2735,834,883
2736,838,884
2737,843,883
2738,848,886
2739,856,885
2740,857,886
2741,858,886
2742,858,884
2743,858,884
2744,859,883
2745,861,885
2746,864,887
2747,868,888
2748,870,890
2749,873,894
2750,876,892
2751,878,894
2752,879,895
2753,878,896
2754,876,896
2755,873,895
2756,872,895
2757,869,894
2758,869,896
2759,868,898
2760,869,900
2761,869,901
2762,866,902
2763,867,903
2764,867,902
2765,865,900
2766,862,901
2767,863,899
2768,862,896
2769,862,896
2770,861,897
2771,859,898
2772,859,900
2773,859,902
2774,860,904
2775,860,904
2776,858,904
2777,860,902
2778,861,899
2779,862,899
2780,860,896
2781,858,895
2782,857,896
2783,856,900
2784,856,900
2785,857,899
2786,860,902
2787,860,902
2788,858,903
2789,858,902
2790,857,899
2791,855,898
2792,855,896
2793,854,896
2794,854,896
2795,853,897
2796,854,897
2797,856,900
2798,857,900
2799,859,900
2800,858,899
2801,856,899
2802,854,898
2803,851,897
2804,847,897
2805,851,895
2806,853,896
2807,853,896
2808,854,900
2809,856,902
2810,856,902
2811,859,904
2812,861,905
2813,863,902
2814,863,902
2815,865,901
2816,863,901
2817,863,902
2818,862,905
2819,859,906
2820,859,907
2821,860,908
2822,860,906
2823,867,910
2824,869,906
2825,871,906
2826,875,905
2827,873,901
2828,874,898
2829,870,896
2830,868,895
2831,868,895
2832,867,895
2833,868,897
2834,865,898
2835,865,896
2836,863,894
2837,860,895
2838,858,893
2839,856,893
2840,852,898
2841,848,897
2842,845,898
2843,843,902
2844,841,900
2845,843,903
2846,842,903
2847,841,902
2848,841,900
2849,838,901
2850,837,900
2851,839,898
2852,835,898
2853,835,897
2854,836,900
2855,835,902
2856,839,903
2857,840,901
2858,840,904
2859,843,903
2860,842,902
2861,841,898
2862,840,899
2863,841,898
2864,840,896
2865,841,898
2866,842,899
2867,843,900
2868,845,903
2869,846,906
2870,848,905
2871,855,907
2872,861,907
2873,871,905
2874,888,903
2875,909,898
2876,934,894
2877,962,888
2878,988,886
2879,1007,883
2880,1015,880
2881,1011,880
2882,992,877
2883,967,878
2884,937,877
2885,907,880
2886,875,883
2887,839,889
2888,803,898
2889,777,909
2890,765,932
2891,770,955
2892,781,976
2893,792,988
2894,793,987
2895,794,978
2896,790,956
2897,794,938
2898,799,920
2899,804,910
2900,810,903
2901,816,899
2902,819,897
2903,819,899
2904,821,900
2905,821,899
2906,822,904
2907,823,904
2908,821,906
2909,821,904
2910,823,898
2911,821,897
2912,819,897
2913,819,894
2914,818,896
2915,817,896
2916,820,900
2917,822,901
2918,821,901
2919,822,902
2920,821,900
2921,823,898
2922,821,897
2923,819,895
2924,818,892
2925,818,890
2926,819,892
2927,817,893
2928,818,895
2929,819,896
2930,817,898
2931,819,896
2932,819,896
2933,818,896
2934,814,895
2935,815,895
2936,812,891
2937,810,893
2938,812,893
2939,811,895
2940,813,897
2941,812,895
2942,815,897
2943,819,897
2944,817,896
2945,817,897
2946,815,895
2947,814,892
2948,811,892
2949,809,890
2950,806,891
2951,805,891
2952,805,893
2953,807,893
2954,807,894
2955,811,894
2956,809,893
2957,808,891
2958,806,891
2959,806,888
2960,805,885
2961,805,885
2962,804,886
2963,806,886
2964,804,886
2965,810,889
2966,810,889
2967,810,888
2968,811,891
2969,811,888
2970,810,889
2971,809,887
2972,809,885
2973,810,885
2974,812,885
2975,814,887
2976,817,887
2977,821,889
2978,822,890
2979,827,888
2980,827,889
2981,831,889
2982,834,883
2983,834,882
2984,838,882
2985,844,882
2986,845,884
2987,851,883
2988,856,887
2989,861,888
2990,867,889
2991,872,888
2992,875,892
2993,873,891
2994,875,890
2995,877,889
2996,878,889
2997,880,889
2998,881,891
2999,882,895
3000,883,899
3001,885,900
3002,883,904
3003,884,905
3004,881,901
3005,883,905
3006,882,902
3007,881,902
3008,879,900
3009,880,898
3010,878,900
3011,876,903
3012,879,907
3013,879,906
3014,878,907
3015,882,910
3016,880,905
3017,880,905
3018,880,905
3019,878,905
3020,877,903
3021,875,899
3022,873,900
3023,874,898
3024,876,902
3025,876,903
3026,876,905
3027,876,907
3028,874,904
3029,877,903
3030,878,901
3031,874,901
3032,871,898
3033,872,898
3034,872,899
3035,872,900
3036,874,900
3037,874,902
3038,875,902
3039,877,906
3040,876,902
3041,878,903
3042,875,899
3043,876,900
3044,874,897
3045,875,899
3046,874,900
3047,873,900
3048,874,904
3049,877,903
3050,879,903
3051,880,906
3052,883,906
3053,880,906
3054,879,902
3055,877,902
3056,877,899
3057,876,897
3058,877,900
3059,881,902
3060,884,901
3061,888,903
3062,888,907
3063,890,910
3064,890,910
3065,891,913
3066,888,909
3067,886,908
3068,888,906
3069,887,904
3070,889,904
3071,893,904
3072,897,904
3073,901,906
3074,903,906
3075,905,905
3076,904,903
3077,903,904
3078,900,903
3079,897,899
3080,893,893
3081,889,896
3082,889,896
3083,885,895
3084,887,897
3085,888,898
3086,887,901
3087,887,902
3088,884,902
3089,880,900
3090,876,902
3091,873,901
3092,872,900
3093,869,900
3094,865,902
3095,866,902
3096,867,902
3097,869,902
3098,868,903
3099,870,907
3100,869,906
3101,869,904
3102,868,906
3103,866,903
3104,866,902
3105,865,901
3106,863,900
3107,864,902
3108,865,907
3109,869,906
3110,869,908
3111,872,909
3112,870,906
3113,870,909
3114,870,908
3115,869,907
3116,869,904
3117,866,905
3118,868,905
3119,869,906
3120,875,910
3121,889,911
3122,903,910
3123,923,907
3124,950,903
3125,979,897
3126,1009,892
3127,1033,887
3128,1043,882
3129,1034,879
3130,1010,878
3131,980,881
3132,945,884
3133,904,889
3134,864,900
3135,831,914
3136,812,930
3137,808,950
3138,812,972
3139,815,983
3140,819,979
3141,822,965
3142,824,947
3143,830,931
3144,836,919
3145,841,916
3146,844,912
3147,849,911
3148,852,911
3149,850,907
3150,850,906
3151,851,906
3152,852,905
3153,848,902
3154,849,902
3155,847,905
3156,847,906
3157,849,907
3158,852,908
3159,856,905
3160,854,904
3161,853,905
3162,853,904
3163,851,903
3164,847,903
3165,849,902
3166,847,901
3167,849,903
3168,850,904
3169,851,906
3170,852,907
3171,851,907
3172,850,907
3173,850,907
3174,850,905
3175,848,903
3176,847,901
3177,846,903
3178,847,900
3179,847,901
3180,845,904
3181,846,904
3182,846,906
3183,847,907
3184,848,904
3185,847,903
3186,846,899
3187,844,898
3188,843,897
3189,842,896
3190,840,898
3191,840,898
3192,840,901
3193,838,902
3194,841,901
3195,843,903
3196,843,900
3197,842,901
3198,843,899
3199,839,899
3200,836,897
3201,836,897
3202,834,896
3203,834,897
3204,835,899
3205,836,899
3206,836,900
3207,834,900
3208,836,901
3209,832,901
3210,832,899
3211,831,896
3212,829,894
3213,831,892
3214,829,891
3215,830,895
3216,831,897
3217,835,895
3218,837,897
3219,837,896
3220,839,897
3221,839,895
3222,839,891
3223,837,892
3224,837,890
3225,835,889
3226,836,891
3227,839,893
3228,842,892
3229,851,893
3230,854,896
3231,858,900
3232,861,899
3233,865,898
3234,869,894
3235,871,893
3236,876,891
3237,878,890
3238,883,889
3239,886,892
3240,892,896
3241,896,895
3242,902,899
3243,904,901
3244,906,898
3245,907,901
3246,909,899
3247,908,898
3248,910,899
3249,908,896
3250,907,900
3251,908,899
3252,909,902
3253,911,907
3254,912,907
3255,913,910
3256,912,908
3257,909,910
3258,907,908
3259,906,907
3260,906,907
3261,904,907
3262,900,909
3263,903,910
3264,904,915
3265,903,913
3266,905,916
3267,905,916
3268,905,915
3269,904,916
3270,904,912
3271,903,911
3272,901,910
3273,899,910
3274,900,909
3275,901,911
3276,902,912
3277,902,912
3278,900,911
3279,904,914
3280,903,911
3281,900,912
3282,899,910
3283,898,907
3284,894,907
3285,895,906
3286,892,905
3287,895,907
3288,895,907
3289,898,908
3290,898,910
3291,902,909
3292,900,910
3293,897,911
3294,897,910
3295,894,908
3296,895,907
3297,892,905
3298,894,905
3299,897,906
3300,896,906
3301,896,907
3302,898,910
3303,896,911
3304,899,908
3305,897,910
3306,897,909
3307,898,907
3308,896,907
3309,900,905
3310,898,905
3311,901,908
3312,904,910
3313,908,913
3314,912,915
3315,914,916
3316,916,915
3317,918,917
3318,916,917
3319,914,914
3320,914,911
3321,913,910
3322,913,912
3323,914,911
3324,916,910
3325,919,909
3326,920,913
3327,924,913
3328,925,911
3329,924,912
3330,922,910
3331,917,906
3332,913,903
3333,908,901
3334,906,901
3335,904,901
3336,905,902
3337,905,904
3338,905,906
3339,907,905
3340,901,905
3341,900,906
3342,899,908
3343,895,908
3344,891,909
3345,889,909
3346,884,907
3347,884,910
3348,885,909
3349,885,910
3350,886,910
3351,884,911
3352,885,909
3353,887,913
3354,885,909
3355,883,909
3356,882,906
3357,880,904
3358,880,906
3359,882,908
3360,883,911
3361,884,912
3362,886,914
3363,886,917
3364,887,917
3365,887,915
3366,885,918
3367,886,916
3368,889,916
3369,894,914
3370,904,915
3371,918,911
3372,939,913
3373,964,910
3374,989,908
3375,1019,907
3376,1042,901
3377,1058,900
3378,1063,898
3379,1052,894
3380,1030,892
3381,1000,890
3382,970,889
3383,941,891
3384,908,897
3385,878,905
3386,853,917
3387,843,936
3388,841,955
3389,842,967
3390,851,972
3391,856,968
3392,862,957
3393,866,944
3394,867,930
3395,866,923
3396,866,919
3397,865,917
3398,863,916
3399,865,916
3400,865,915
3401,866,913
3402,866,911
3403,866,909
3404,865,908
3405,862,909
3406,860,907
3407,856,909
3408,856,911
3409,860,911
3410,864,911
3411,864,912
3412,865,912
3413,863,909
3414,862,909
3415,860,906
3416,860,906
3417,858,904
3418,856,904
3419,856,906
3420,857,906
3421,859,909
3422,859,909
3423,860,909
3424,859,911
3425,857,909
3426,856,908
3427,854,909
3428,853,905
3429,851,905
3430,847,906
3431,851,905
3432,849,906
3433,849,907
3434,849,910
3435,848,911
3436,847,907
3437,845,907
3438,843,905
3439,843,904
3440,840,902
3441,840,903
3442,840,903
3443,838,903
3444,839,905
3445,838,905
3446,838,907
3447,840,908
3448,839,906
3449,840,905
3450,836,905
3451,833,904
3452,834,903
3453,831,902
3454,832,905
3455,833,903
3456,834,903
3457,832,907
3458,834,907
3459,834,908
3460,835,908
3461,833,907
3462,833,904
3463,831,902
3464,832,903
3465,831,900
3466,831,900
3467,834,903
3468,836,905
3469,839,906
3470,840,907
3471,842,909
3472,846,906
3473,847,905
3474,848,902
3475,850,903
3476,851,901
3477,852,899
3478,857,896
3479,862,898
3480,865,900
3481,870,901
3482,878,902
3483,885,903
3484,891,902
3485,895,902
3486,899,902
3487,902,902
3488,900,901
3489,902,902
3490,903,902
3491,905,903
3492,907,906
3493,911,909
3494,910,910
3495,914,913
3496,913,913
3497,912,912
3498,911,912
3499,910,910
3500,907,909
3501,906,909
3502,905,907
3503,904,910
3504,905,912
3505,906,911
3506,906,910
3507,908,914
3508,908,914
3509,906,912
3510,900,912
3511,902,910
3512,902,911
3513,899,909
3514,900,910
3515,900,913
3516,901,913
3517,900,916
3518,899,915
3519,899,919
3520,900,917
3521,901,914
3522,901,913
3523,899,912
3524,898,910
3525,896,911
3526,896,911
3527,893,911
3528,894,913
3529,896,915
3530,896,914
3531,896,915
3532,898,915
3533,897,915
3534,892,915
3535,892,911
3536,894,911
3537,893,908
3538,894,908
3539,894,911
3540,894,909
3541,897,913
3542,896,914
3543,896,913
3544,898,915
3545,900,911
3546,900,908
3547,897,909
3548,897,909
3549,893,911
3550,893,908
3551,895,911
3552,898,912
3553,901,914
3554,904,916
3555,907,918
3556,911,919
3557,910,919
3558,909,921
3559,913,918
3560,914,918
3561,912,916
3562,914,918
3563,913,920
3564,915,919
3565,915,921
3566,914,920
3567,917,920
3568,919,918
3569,922,912
3570,921,910
3571,918,907
3572,916,904
3573,914,904
3574,911,903
3575,906,903
3576,905,903
3577,901,903
3578,900,908
3579,902,909
3580,901,907
3581,897,907
3582,897,905
3583,895,908
3584,892,908
3585,889,912
3586,887,912
3587,886,913
3588,886,916
3589,885,915
3590,885,919
3591,887,919
3592,888,917
3593,884,916
3594,882,916
3595,880,915
3596,882,912
3597,879,910
3598,879,912
3599,880,912
3600,882,914
3601,884,915
3602,883,915
3603,886,918
3604,886,918
3605,887,916
3606,886,916
3607,882,914
3608,885,917
3609,882,916
3610,882,914
3611,884,917
3612,888,920
3613,893,922
3614,903,923
3615,914,925
3616,929,921
3617,944,919
3618,966,914
3619,991,909
3620,1015,906
3621,1035,903
3622,1048,900
3623,1053,900
3624,1042,902
3625,1022,902
3626,995,900
3627,970,898
3628,942,901
3629,910,901
3630,878,910
3631,850,923
3632,838,939
3633,836,957
3634,841,969
3635,849,971
3636,860,964
3637,869,953
3638,870,941
3639,871,936
3640,866,926
3641,861,922
3642,858,918
3643,858,915
3644,857,912
3645,856,913
3646,856,911
3647,860,915
3648,862,916
3649,861,919
3650,860,919
3651,861,922
3652,861,921
3653,861,918
3654,860,916
3655,859,915
3656,858,913
3657,857,913
3658,854,913
3659,855,914
3660,854,914
3661,856,916
3662,857,918
3663,858,920
3664,857,920
3665,855,920
3666,854,916
3667,854,914
3668,852,912
3669,850,913
3670,849,911
3671,848,914
3672,849,914
3673,850,914
3674,850,917
3675,852,920
3676,852,918
3677,849,917
3678,848,917
3679,848,914
3680,846,912
3681,844,913
3682,844,912
3683,844,913
3684,844,917
3685,845,917
3686,845,917
3687,844,918
3688,845,919
3689,843,915
3690,842,914
3691,840,911
3692,838,911
3693,837,910
3694,837,910
3695,837,911
3696,836,911
3697,836,914
3698,835,915
3699,835,917
3700,834,915
3701,832,915
3702,830,912
3703,828,908
3704,828,908
3705,827,906
3706,826,905
3707,826,909
3708,827,909
3709,831,912
3710,830,914
3711,830,915
3712,833,912
3713,833,912
3714,833,911
3715,833,910
3716,833,907
3717,834,907
3718,834,909
3719,836,909
3720,838,910
3721,841,910
3722,845,912
3723,848,913
3724,850,912
3725,855,913
3726,859,909
3727,862,908
3728,865,906
3729,866,904
3730,869,903
3731,875,904
3732,880,905
3733,885,906
3734,892,908
3735,895,911
3736,898,910
3737,902,910
3738,903,908
3739,903,908
3740,903,906
3741,903,905
3742,902,908
3743,903,909
3744,905,913
3745,906,916
3746,907,916
3747,908,916
3748,908,919
3749,908,918
3750,906,916
3751,904,916
3752,905,914
3753,900,915
3754,900,913
3755,900,915
3756,900,915
3757,901,916
3758,901,916
3759,902,918
3760,902,918
3761,902,915
3762,903,916
3763,899,914
3764,898,913
3765,897,909
3766,895,911
3767,894,911
3768,895,913
3769,894,913
3770,895,917
3771,895,918
3772,898,917
3773,896,916
3774,893,916
3775,894,914
3776,893,912
3777,891,914
3778,891,913
3779,891,913
3780,888,914
3781,888,915
3782,890,917
3783,892,919
3784,893,919
3785,890,917
3786,893,917
3787,892,913
3788,888,912
3789,887,910
3790,886,908
3791,887,912
3792,886,912
3793,888,915
3794,888,917
3795,889,916
3796,891,917
3797,891,916
3798,890,914
3799,888,914
3800,889,910
3801,888,912
3802,891,910
3803,891,911
3804,896,914
3805,899,916
3806,903,920
3807,905,923
3808,908,924
3809,907,923
3810,908,923
3811,910,920
3812,907,920
3813,906,918
3814,904,918
3815,903,916
3816,906,917
3817,909,915
3818,912,916
3819,913,918
3820,916,916
3821,915,913
3822,914,910
3823,909,906
3824,906,907
3825,900,904
3826,896,904
3827,893,905
3828,893,905
3829,895,905
3830,894,908
3831,894,909
3832,893,909
3833,893,908
3834,890,910
3835,883,909
3836,880,911
3837,878,916
3838,875,913
3839,874,915
3840,873,915
3841,874,917
3842,873,920
3843,877,921
3844,875,919
3845,874,919
3846,873,916
3847,873,915
3848,871,912
3849,873,912
3850,872,914
3851,871,913
3852,872,914
3853,875,916
3854,875,921
3855,877,921
3856,877,919
3857,877,917
3858,879,917
3859,876,917
3860,877,917
3861,876,918
3862,878,918
3863,891,918
3864,902,919
3865,920,917
3866,944,914
3867,971,912
3868,995,908
3869,1020,903
3870,1035,898
3871,1036,898
3872,1022,896
3873,999,893
3874,972,891
3875,947,889
3876,919,889
3877,889,895
3878,862,906
3879,842,920
3880,836,938
3881,834,955
3882,839,969
3883,844,975
3884,849,967
3885,853,952
3886,854,940
3887,854,927
3888,849,923
3889,850,917
3890,850,914
3891,851,913
3892,853,912
3893,854,912
3894,852,911
3895,851,911
3896,852,907
3897,851,908
3898,851,905
3899,848,909
3900,850,907
3901,852,910
3902,852,912
3903,851,914
3904,855,913
3905,855,913
3906,853,912
3907,851,909
3908,849,909
3909,847,905
3910,843,908
3911,845,909
3912,846,911
3913,848,912
3914,850,912
3915,848,914
3916,848,913
3917,848,913
3918,846,912
3919,841,908
3920,841,908
3921,838,909
3922,839,905
3923,838,905
3924,841,903
3925,842,908
3926,842,910
3927,841,910
3928,843,910
3929,840,909
3930,841,910
3931,836,907
3932,832,906
3933,835,907
3934,832,907
3935,832,908
3936,831,909
3937,831,909
3938,833,910
3939,833,912
3940,832,912
3941,833,909
3942,831,910
3943,827,907
3944,826,905
3945,823,906
3946,825,903
3947,824,904
3948,824,907
3949,824,908
3950,824,908
3951,827,908
3952,825,908
3953,826,906
3954,826,906
3955,822,904
3956,822,902
3957,821,900
3958,821,901
3959,823,901
3960,825,903
3961,825,902
3962,828,904
3963,829,906
3964,833,907
3965,834,906
3966,832,906
3967,830,905
3968,833,904
3969,832,902
3970,833,902
3971,836,903
3972,840,906
3973,844,906
3974,849,905
3975,851,906
3976,857,906
3977,862,905
3978,867,904
3979,871,902
3980,871,901
3981,875,900
3982,879,899
3983,880,902
3984,883,901
3985,884,902
3986,889,904
3987,892,906
3988,895,906
3989,897,906
3990,899,907
3991,898,906
3992,895,904
3993,898,903
3994,894,903
3995,898,904
3996,897,907
3997,897,910
3998,899,910
3999,899,911
4000,901,913
4001,897,914
4002,898,912
4003,894,913
4004,892,910
4005,889,909
4006,890,909
4007,887,910
4008,888,913
4009,887,914
4010,887,914
4011,889,917
4012,890,916
4013,890,915
4014,890,913
4015,889,911
4016,887,908
4017,884,909
4018,883,909
4019,883,909
4020,884,909
4021,885,910
4022,886,911
4023,885,911
4024,887,913
4025,886,909
4026,887,910
4027,883,908
4028,881,909
4029,880,905
4030,880,905
4031,881,907
4032,880,909
4033,880,912
4034,882,913
4035,882,914
4036,884,915
4037,882,913
4038,881,910
4039,882,912
4040,880,910
4041,879,910
4042,878,907
4043,877,908
4044,878,910
4045,880,911
4046,882,913
4047,884,912
4048,885,912
4049,884,911
4050,884,910
4051,888,911
4052,887,910
4053,889,907
4054,890,908
4055,891,910
4056,895,914
4057,898,915
4058,900,916
4059,901,918
4060,904,917
4061,899,917
4062,899,917
4063,898,916
4064,897,913
4065,895,911
4066,897,909
4067,897,908
4068,900,907
4069,904,906
4070,904,906
4071,903,908
4072,901,910
4073,895,909
4074,888,907
4075,882,906
4076,884,905
4077,883,901
4078,882,899
4079,881,901
4080,879,905
4081,878,906
4082,878,909
4083,872,913
4084,874,917
4085,869,918
4086,871,915
4087,869,913
4088,865,910
4089,865,908
4090,861,910
4091,863,909
4092,863,911
4093,864,910
4094,865,912
4095,866,915
4096,867,913
4097,865,914
4098,867,915
4099,863,911
4100,863,915
4101,865,910
4102,866,910
4103,864,911
4104,865,911
4105,866,913
4106,867,917
4107,866,919
4108,870,921
4109,869,921
4110,874,921
4111,880,918
4112,889,915
4113,903,911
4114,924,909
4115,946,905
4116,973,902
4117,997,897
4118,1019,896
4119,1027,895
4120,1024,894
4121,1005,893
4122,979,889
4123,952,886
4124,929,883
4125,906,884
4126,878,887
4127,852,895
4128,831,906
4129,819,925
4130,817,942
4131,822,964
4132,830,976
4133,835,980
4134,836,971
4135,836,959
4136,837,940
4137,836,929
4138,835,921
4139,836,916
4140,839,915
4141,842,913
4142,843,916
4143,845,915
4144,847,915
4145,846,913
4146,843,915
4147,844,913
4148,841,911
4149,838,907
4150,841,907
4151,840,908
4152,840,908
4153,839,912
4154,842,912
4155,842,914
4156,844,914
4157,844,913
4158,842,914
4159,839,911
4160,839,909
4161,836,907
4162,836,908
4163,839,909
4164,836,909
4165,836,911
4166,834,913
4167,837,916
4168,838,916
4169,837,914
4170,837,914
4171,835,913
4172,833,908
4173,832,906
4174,832,906
4175,830,908
4176,829,907
4177,831,909
4178,832,909
4179,832,909
4180,834,910
4181,830,909
4182,831,908
4183,830,905
4184,828,905
4185,826,901
4186,826,900
4187,824,903
4188,823,906
4189,824,905
4190,825,908
4191,824,908
4192,825,908
4193,825,906
4194,823,906
4195,821,903
4196,818,903
4197,817,903
4198,816,902
4199,815,901
4200,817,904
4201,819,906
4202,821,906
4203,821,908
4204,823,910
4205,823,909
4206,824,907
4207,823,905
4208,823,906
4209,822,904
4210,822,904
4211,822,902
4212,826,903
4213,828,906
4214,831,905
4215,834,905
4216,837,908
4217,840,906
4218,841,906
4219,843,902
4220,844,901
4221,845,900
4222,850,898
4223,852,899
4224,858,903
4225,863,902
4226,869,905
4227,873,907
4228,880,904
4229,885,902
4230,884,903
4231,887,900
4232,886,901
4233,889,900
4234,889,900
4235,893,901
4236,893,904
4237,895,909
4238,897,908
4239,897,911
4240,899,912
4241,896,912
4242,895,909
4243,894,909
4244,892,906
4245,890,905
4246,890,906
4247,889,906
4248,887,908
4249,885,911
4250,888,913
4251,887,912
4252,887,914
4253,884,910
4254,886,912
4255,883,909
4256,882,909
4257,881,908
4258,880,907
4259,877,910
4260,878,909
4261,879,913
4262,880,915
4263,880,918
4264,881,915
4265,880,917
4266,878,914
4267,879,911
4268,878,913
4269,877,910
4270,875,909
4271,875,909
4272,874,911
4273,873,911
4274,874,911
4275,875,915
4276,875,916
4277,876,913
4278,875,911
4279,875,908
4280,871,907
4281,869,906
4282,871,908
4283,870,908
4284,872,910
4285,876,910
4286,876,913
4287,877,914
4288,877,913
4289,875,913
4290,873,913
4291,873,911
4292,874,911
4293,874,908
4294,873,909
4295,873,907
4296,873,910
4297,876,911
4298,879,913
4299,882,914
4300,887,916
4301,887,915
4302,889,915
4303,890,915
4304,893,914
4305,893,913
4306,891,915
4307,892,914
4308,891,914
4309,892,915
4310,892,914
4311,893,915
4312,896,914
4313,896,913
4314,895,911
4315,898,908
4316,899,905
4317,898,904
4318,897,904
4319,894,901
4320,889,905
4321,887,907
4322,886,907
4323,885,907
4324,885,911
4325,886,906
4326,881,906
4327,882,903
4328,878,901
4329,877,901
4330,873,902
4331,869,907
4332,866,910
4333,865,912
4334,867,916
4335,866,918
4336,867,918
4337,865,919
4338,863,914
4339,862,912
4340,860,910
4341,860,909
4342,860,910
4343,860,909
4344,861,911
4345,859,913
4346,863,913
4347,865,913
4348,866,914
4349,865,913
4350,864,913
4351,862,913
4352,862,911
4353,861,911
4354,862,911
4355,862,914
4356,860,913
4357,864,914
4358,865,920
4359,868,921
4360,874,921
4361,882,918
4362,891,921
4363,906,915
4364,927,911
4365,951,906
4366,978,900
4367,999,896
4368,1012,893
4369,1013,892
4370,1002,893
4371,980,891
4372,952,889
4373,925,887
4374,896,888
4375,864,890
4376,831,896
4377,808,908
4378,801,924
4379,802,948
4380,806,965
4381,814,974
4382,819,970
4383,826,965
4384,829,949
4385,830,936
4386,831,928
4387,833,922
4388,834,915
4389,836,913
4390,838,912
4391,838,911
4392,838,910
4393,841,915
4394,841,916
4395,842,917
4396,844,918
4397,844,916
4398,841,915
4399,842,911
4400,841,910
4401,836,910
4402,836,907
4403,835,910
4404,836,910
4405,839,911
4406,840,912
4407,840,912
4408,841,913
4409,841,912
4410,839,911
4411,838,909
4412,836,907
4413,837,905
4414,837,906
4415,835,907
4416,833,907
4417,833,908
4418,835,912
4419,835,913
4420,838,914
4421,836,913
4422,835,911
4423,835,910
4424,833,908
4425,831,906
4426,830,905
4427,828,908
4428,827,909
4429,830,910
4430,831,911
4431,830,911
4432,832,914
4433,829,911
4434,830,911
4435,828,908
4436,826,906
4437,826,904
4438,824,903
4439,819,903
4440,820,903
4441,821,904
4442,824,908
4443,821,907
4444,824,907
4445,824,908
4446,823,905
4447,819,902
4448,818,901
4449,816,901
4450,816,900
4451,815,901
4452,816,904
4453,818,902
4454,821,906
4455,821,907
4456,824,908
4457,823,904
4458,824,904
4459,822,902
4460,821,902
4461,820,900
4462,820,901
4463,819,901
4464,821,901
4465,827,903
4466,831,903
4467,834,905
4468,838,905
4469,842,903
4470,840,902
4471,844,900
4472,848,897
4473,850,896
4474,853,896
4475,855,894
4476,863,894
4477,867,897
4478,871,898
4479,874,899
4480,879,899
4481,881,900
4482,883,901
4483,885,900
4484,884,900
4485,888,899
4486,888,900
4487,888,898
4488,889,903
4489,891,902
4490,892,903
4491,893,907
4492,894,908
4493,895,909
4494,891,907
4495,888,904
4496,887,907
4497,886,904
4498,887,906
4499,884,906
4500,884,908
4501,883,909
4502,885,910
4503,886,910
4504,886,913
4505,883,911
4506,880,909
4507,880,906
4508,880,909
4509,878,907
4510,875,904
4511,874,906
4512,874,906
4513,876,909
4514,876,909
4515,875,908
4516,877,912
4517,877,910
4518,876,911
4519,875,909
4520,873,907
4521,871,906
4522,870,906
4523,867,903
4524,867,906
4525,867,906
4526,870,908
4527,872,912
4528,873,911
4529,873,910
4530,872,909
4531,867,906
4532,869,904
4533,865,903
4534,865,903
4535,865,904
4536,863,903
4537,869,907
4538,869,905
4539,870,908
4540,872,908
4541,872,905
4542,871,908
4543,872,906
4544,869,903
4545,867,902
4546,866,903
4547,866,902
4548,866,903
4549,867,905
4550,869,906
4551,871,911
4552,871,909
4553,872,910
4554,873,911
4555,876,909
4556,875,909
4557,876,906
4558,879,906
4559,880,906
4560,883,908
4561,885,912
4562,886,912
4563,887,913
4564,888,914
4565,887,911
4566,887,909
4567,886,907
4568,884,902
4569,885,900
4570,886,898
4571,887,899
4572,889,898
4573,891,900
4574,889,900
4575,886,900
4576,882,900
4577,879,901
4578,877,900
4579,876,899
4580,873,897
4581,872,896
4582,871,897
4583,871,896
4584,870,896
4585,867,900
4586,866,901
4587,864,905
4588,863,911
4589,863,914
4590,859,913
4591,857,911
4592,857,911
4593,853,908
4594,853,906
4595,853,907
4596,853,908
4597,854,911
4598,855,911
4599,855,911
4600,857,913
4601,857,912
4602,856,908
4603,856,910
4604,853,908
4605,854,908
4606,851,906
4607,853,906
4608,853,907
4609,854,907
4610,856,911
4611,857,912
4612,859,913
4613,859,912
4614,860,917
4615,865,916
4616,869,915
4617,879,913
4618,892,908
4619,908,908
4620,930,902
4621,958,903
4622,977,900
4623,997,900
4624,1008,899
4625,1004,895
4626,989,893
4627,968,886
4628,943,886
4629,918,885
4630,893,885
4631,862,889
4632,833,896
4633,809,911
4634,799,928
4635,798,950
4636,802,969
4637,806,978
4638,808,979
4639,810,966
4640,809,951
4641,813,933
4642,813,917
4643,818,911
4644,826,908
4645,829,910
4646,833,910
4647,832,914
4648,833,913
4649,834,910
4650,833,909
4651,831,908
4652,830,908
4653,829,906
4654,827,906
4655,824,906
4656,828,906
4657,828,907
4658,826,909
4659,830,910
4660,833,911
4661,832,911
4662,831,909
4663,832,907
4664,828,906
4665,828,904
4666,827,903
4667,826,903
4668,826,905
4669,827,904
4670,828,907
4671,828,906
4672,830,907
4673,829,907
4674,830,906
4675,827,905
4676,826,903
4677,826,902
4678,824,900
4679,822,899
4680,821,902
4681,821,904
4682,822,907
4683,822,905
4684,823,903
4685,823,904
4686,819,904
4687,820,901
4688,817,899
4689,817,898
4690,816,898
4691,816,897
4692,815,900
4693,815,899
4694,813,901
4695,817,903
4696,820,903
4697,819,903
4698,819,901
4699,818,901
4700,817,896
4701,814,896
4702,813,894
4703,811,893
4704,812,896
4705,812,894
4706,814,896
4707,814,898
4708,813,901
4709,815,898
4710,815,900
4711,816,898
4712,816,898
4713,814,897
4714,816,895
4715,814,896
4716,814,898
4717,817,899
4718,819,901
4719,822,901
4720,826,903
4721,828,901
4722,829,900
4723,830,898
4724,833,897
4725,832,894
4726,835,895
4727,836,894
4728,840,894
4729,847,896
4730,851,896
4731,855,898
4732,861,897
4733,863,895
4734,866,896
4735,869,893
4736,871,889
4737,876,889
4738,876,891
4739,881,891
4740,883,891
4741,885,895
4742,886,898
4743,885,901
4744,889,900
4745,889,902
4746,888,902
4747,887,898
4748,886,898
4749,883,899
4750,880,899
4751,881,902
4752,879,906
4753,879,907
4754,880,908
4755,876,909
4756,879,909
4757,877,911
4758,875,909
4759,872,907
4760,873,906
4761,871,903
4762,869,903
4763,866,901
4764,866,904
4765,868,906
4766,871,907
4767,870,908
4768,871,909
4769,871,908
4770,870,906
4771,868,906
4772,867,904
4773,865,904
4774,864,902
4775,862,903
4776,861,904
4777,861,906
4778,865,907
4779,865,907
4780,864,905
4781,865,905
4782,863,907
4783,862,902
4784,864,901
4785,864,898
4786,862,897
4787,861,898
4788,861,898
4789,862,902
4790,865,905
4791,863,908
4792,868,910
4793,868,909
4794,869,906
4795,866,906
4796,865,906
4797,863,901
4798,860,899
4799,861,902
4800,860,902
4801,862,904
4802,865,905
4803,870,908
4804,871,909
4805,872,908
4806,876,909
4807,877,909
4808,875,908
4809,874,911
4810,875,909
4811,873,908
4812,874,907
4813,875,908
4814,879,909
4815,881,908
4816,887,906
4817,888,905
4818,887,904
4819,886,898
4820,885,896
4821,881,897
4822,878,892
4823,875,893
4824,871,893
4825,868,898
4826,868,896
4827,868,900
4828,867,898
4829,866,898
4830,866,898
4831,862,899
4832,857,899
4833,853,899
4834,852,902
4835,851,902
4836,848,901
4837,847,906
4838,848,907
4839,852,908
4840,852,910
4841,853,909
4842,851,909
4843,849,906
4844,846,905
4845,844,903
4846,844,903
4847,845,903
4848,847,903
4849,844,909
4850,845,907
4851,847,908
4852,851,910
4853,852,907
4854,852,908
4855,852,907
4856,850,906
4857,850,904
4858,850,905
4859,851,905
4860,853,905
4861,856,908
4862,862,909
4863,870,911
4864,882,912
4865,897,910
4866,916,908
4867,937,902
4868,960,896
4869,978,891
4870,994,886
4871,1005,881
4872,1004,880
4873,993,883
4874,972,883
4875,951,883
4876,925,886
4877,899,888
4878,868,893
4879,831,902
4880,808,916
4881,795,937
4882,795,961
4883,799,983
4884,802,992
4885,805,985
4886,807,964
4887,809,944
4888,816,928
4889,821,912
4890,827,908
4891,829,902
4892,829,903
4893,829,902
4894,824,902
4895,820,903
4896,820,903
4897,820,902
4898,825,904
4899,827,907
4900,830,906
4901,828,906
4902,831,905
4903,830,906
4904,823,902
4905,822,901
4906,822,901
4907,823,900
4908,823,901
4909,825,906
4910,826,903
4911,823,904
4912,825,907
4913,825,907
4914,824,905
4915,824,903
4916,822,904
4917,819,899
4918,820,900
4919,819,899
4920,821,900
4921,822,902
4922,821,900
4923,823,903
4924,822,905
4925,822,903
4926,820,901
4927,817,900
4928,817,899
4929,816,898
4930,816,897
4931,814,897
4932,815,896
4933,816,897
4934,817,900
4935,816,901
4936,819,903
4937,815,902
4938,814,901
4939,815,901
4940,812,900
4941,813,896
4942,812,896
4943,808,897
4944,810,896
4945,810,899
4946,809,899
4947,809,901
4948,812,900
4949,812,901
4950,812,898
4951,810,896
4952,809,895
4953,808,891
4954,808,891
4955,808,892
4956,811,892
4957,810,891
4958,812,892
4959,814,894
4960,817,897
4961,816,896
4962,814,893
4963,817,895
4964,819,893
4965,819,891
4966,820,890
4967,823,887
4968,827,890
4969,831,889
4970,835,890
4971,838,891
4972,840,895
4973,845,893
4974,845,891
4975,847,891
4976,852,889
4977,855,888
4978,857,887
4979,856,887
4980,861,891
4981,867,892
4982,872,894
4983,875,896
4984,876,898
4985,880,899
4986,880,899
4987,881,899
4988,878,897
4989,878,896
4990,876,898
4991,878,897
4992,876,897
4993,875,901
4994,875,902
4995,875,905
4996,874,907
4997,876,908
4998,876,909
4999,873,905
5000,871,905
5001,869,904
5002,864,903
5003,863,905
5004,863,904
5005,864,907
5006,866,909
5007,866,909
5008,866,910
5009,866,911
5010,867,909
5011,864,908
5012,864,906
5013,863,902
5014,860,905
5015,860,905
5016,861,905
5017,860,908
5018,860,907
5019,862,909
5020,863,910
5021,863,907
5022,862,907
5023,860,903
5024,859,901
5025,860,899
5026,859,899
5027,857,901
5028,856,902
5029,857,903
5030,855,906
5031,859,908
5032,861,909
5033,861,908
5034,859,909
5035,856,901
5036,856,905
5037,855,903
5038,856,902
5039,855,900
5040,855,901
5041,857,901
5042,856,901
5043,858,905
5044,859,906
5045,860,907
5046,859,905
5047,859,906
5048,858,905
5049,858,903
5050,859,902
5051,861,900
5052,861,904
5053,863,906
5054,867,909
5055,869,912
5056,872,911
5057,872,910
5058,872,908
5059,871,908
5060,870,907
5061,868,907
5062,868,907
5063,869,906
5064,869,905
5065,869,907
5066,877,907
5067,878,909
5068,880,908
5069,883,907
5070,881,905
5071,875,904
5072,867,902
5073,867,900
5074,864,897
5075,862,897
5076,861,900
5077,863,901
5078,865,904
5079,864,904
5080,864,904
5081,863,904
5082,861,903
5083,854,900
5084,854,902
5085,850,903
5086,847,903
5087,844,906
5088,844,903
5089,844,907
5090,847,907
5091,846,911
5092,846,912
5093,847,910
5094,845,911
5095,846,907
5096,845,908
5097,845,906
5098,841,904
5099,840,906
5100,840,908
5101,843,909
5102,843,909
5103,845,910
5104,846,912
5105,848,910
5106,847,909
5107,848,910
5108,847,910
5109,849,909
5110,849,910
5111,854,907
5112,863,910
5113,878,907
5114,896,907
5115,922,907
5116,948,904
5117,974,897
5118,995,891
5119,1006,888
5120,1008,880
5121,995,877
5122,971,876
5123,941,876
5124,915,877
5125,886,884
5126,853,893
5127,820,908
5128,796,923
5129,787,941
5130,790,962
5131,797,982
5132,801,994
5133,800,989
5134,796,974
5135,797,956
5136,798,938
5137,804,923
5138,813,915
5139,817,911
5140,825,912
5141,827,912
5142,829,910
5143,830,907
5144,827,907
5145,823,904
5146,822,901
5147,823,901
5148,824,901
5149,824,905
5150,825,904
5151,827,906
5152,826,909
5153,826,906
5154,825,905
5155,824,906
5156,821,905
5157,820,904
5158,820,901
5159,817,903
5160,818,902
5161,819,904
5162,821,904
5163,819,904
5164,821,907
5165,823,908
5166,822,907
5167,821,903
5168,820,905
5169,819,903
5170,817,901
5171,814,898
5172,815,899
5173,814,903
5174,813,902
5175,815,905
5176,816,906
5177,817,903
5178,816,902
5179,813,902
5180,811,900
5181,807,898
5182,809,899
5183,808,897
5184,808,898
5185,809,898
5186,810,899
5187,811,901
5188,812,903
5189,812,899
5190,811,901
5191,809,900
5192,809,898
5193,805,897
5194,802,897
5195,801,895
5196,804,896
5197,802,895
5198,805,897
5199,808,897
5200,808,900
5201,810,897
5202,810,897
5203,808,893
5204,805,893
5205,804,890
5206,807,889
5207,808,890
5208,808,890
5209,809,891
5210,811,891
5211,814,893
5212,816,893
5213,820,895
5214,823,891
5215,825,892
5216,826,890
5217,829,891
5218,832,889
5219,833,889
5220,835,888
5221,841,893
5222,844,893
5223,852,892
5224,856,894
5225,863,893
5226,862,894
5227,866,893
5228,864,894
5229,866,894
5230,866,893
5231,865,892
5232,870,896
5233,873,897
5234,875,900
5235,878,902
5236,879,906
5237,879,907
5238,877,909
5239,877,904
5240,875,901
5241,873,899
5242,870,901
5243,869,903
5244,870,904
5245,870,908
5246,871,908
5247,872,909
5248,873,912
5249,872,912
5250,871,911
5251,870,912
5252,870,909
5253,865,911
5254,862,907
5255,862,907
5256,863,908
5257,863,909
5258,865,910
5259,864,914
5260,867,913
5261,868,913
5262,869,910
5263,866,909
5264,865,908
5265,862,907
5266,862,904
5267,862,905
5268,861,907
5269,860,909
5270,864,910
5271,864,910
5272,864,913
5273,865,909
5274,864,908
5275,865,908
5276,863,906
5277,859,903
5278,857,904
5279,857,904
5280,860,904
5281,862,903
5282,864,908
5283,865,908
5284,867,909
5285,868,911
5286,867,911
5287,865,909
5288,864,908
5289,864,911
5290,863,907
5291,862,908
5292,866,909
5293,869,908
5294,869,913
5295,874,915
5296,873,918
5297,875,917
5298,875,918
5299,877,919
5300,874,915
5301,872,913
5302,870,912
5303,874,912
5304,875,909
5305,877,913
5306,882,912
5307,887,914
5308,890,912
5309,890,911
5310,887,910
5311,888,907
5312,883,904
5313,879,902
5314,876,899
5315,873,898
5316,874,899
5317,874,902
5318,874,901
5319,871,905
5320,872,908
5321,869,912
5322,865,913
5323,862,910
5324,859,910
5325,855,910
5326,853,909
5327,850,908
5328,850,909
5329,851,910
5330,851,911
5331,851,913
5332,853,915
5333,855,914
5334,852,914
5335,854,913
5336,852,911
5337,848,908
5338,847,906
5339,852,904
5340,850,908
5341,848,908
5342,849,908
5343,852,911
5344,853,914
5345,853,914
5346,855,914
5347,856,912
5348,856,911
5349,853,909
5350,854,911
5351,854,907
5352,859,910
5353,870,913
5354,884,912
5355,899,911
5356,917,908
5357,943,906
5358,971,902
5359,996,897
5360,1011,893
5361,1018,890
5362,1014,888
5363,1000,890
5364,976,888
5365,953,889
5366,930,891
5367,905,892
5368,882,900
5369,853,903
5370,827,910
5371,808,920
5372,802,934
5373,804,953
5374,810,969
5375,811,981
5376,808,981
5377,806,976
5378,809,961
5379,813,949
5380,817,936
5381,822,927
5382,825,920
5383,829,916
5384,831,912
5385,831,909
5386,829,907
5387,829,905
5388,830,908
5389,831,910
5390,831,912
5391,834,911
5392,834,911
5393,834,915
5394,834,913
5395,832,913
5396,831,909
5397,830,908
5398,827,908
5399,828,909
5400,829,908
5401,831,909
5402,828,912
5403,832,911
5404,831,913
5405,830,912
5406,830,910
5407,828,910
5408,824,908
5409,826,905
5410,826,905
5411,823,904
5412,824,907
5413,825,907
5414,826,909
5415,827,912
5416,826,913
5417,827,910
5418,826,912
5419,824,911
5420,822,909
5421,825,906
5422,821,906
5423,819,905
5424,819,907
5425,819,907
5426,818,911
5427,818,909
5428,820,911
5429,820,912
5430,819,910
5431,816,910
5432,815,907
5433,816,906
5434,809,905
5435,807,904
5436,807,903
5437,806,904
5438,808,906
5439,809,908
5440,808,908
5441,809,908
5442,810,907
5443,809,905
5444,807,904
5445,806,903
5446,804,902
5447,800,902
5448,799,902
5449,803,903
5450,803,907
5451,806,906
5452,807,908
5453,808,908
5454,808,905
5455,808,905
5456,808,902
5457,807,899
5458,807,901
5459,808,900
5460,810,902
5461,811,904
5462,814,907
5463,816,904
5464,821,906
5465,821,906
5466,824,904
5467,827,905
5468,829,902
5469,832,901
5470,835,899
5471,838,899
5472,841,898
5473,848,899
5474,854,903
5475,861,904
5476,867,904
5477,873,905
5478,876,904
5479,878,903
5480,880,906
5481,878,903
5482,879,903
5483,881,905
5484,879,906
5485,879,908
5486,882,913
5487,885,913
5488,887,917
5489,888,918
5490,887,917
5491,886,917
5492,884,915
5493,881,913
5494,878,914
5495,877,914
5496,878,915
5497,880,917
5498,881,917
5499,878,917
5500,882,919
5501,881,919
5502,879,920
5503,880,919
5504,879,914
5505,877,914
5506,876,913
5507,875,914
5508,875,913
5509,875,914
5510,877,916
5511,877,917
5512,877,920
5513,878,919
5514,876,918
5515,875,918
5516,874,918
5517,873,916
5518,873,913
5519,871,913
5520,870,912
5521,870,916
5522,874,918
5523,872,919
5524,872,919
5525,873,917
5526,874,917
5527,872,917
5528,872,917
5529,870,912
5530,866,910
5531,865,909
5532,867,912
5533,870,912
5534,871,915
5535,871,918
5536,872,916
5537,872,915
5538,872,915
5539,873,914
5540,871,911
5541,870,909
5542,870,910
5543,868,911
5544,871,912
5545,871,913
5546,874,914
5547,878,918
5548,878,918
5549,882,918
5550,882,920
5551,887,918
5552,887,918
5553,887,916
5554,886,917
5555,887,918
5556,888,920
5557,889,920
5558,888,924
5559,890,923
5560,892,920
5561,895,921
5562,894,916
5563,896,915
5564,897,911
5565,896,909
5566,897,907
5567,892,907
5568,888,909
5569,887,908
5570,883,909
5571,883,910
5572,879,913
5573,881,908
5574,881,910
5575,879,909
5576,879,907
5577,875,908
5578,873,907
5579,869,907
5580,866,910
5581,864,915
5582,865,919
5583,864,918
5584,861,920
5585,863,920
5586,861,919
5587,859,916
5588,858,916
5589,858,916
5590,858,914
5591,857,914
5592,857,915
5593,855,916
5594,857,914
5595,859,915
5596,861,915
5597,863,919
5598,862,916
5599,861,916
5600,863,916
5601,860,912
5602,859,912
5603,859,910
5604,859,915
5605,861,916
5606,863,919
5607,868,921
5608,872,924
5609,882,924
5610,891,923
5611,904,919
5612,922,915
5613,943,912
5614,969,906
5615,991,902
5616,1014,899
5617,1028,896
5618,1028,899
5619,1014,899
5620,985,897
5621,954,894
5622,915,893
5623,875,895
5624,838,907
5625,815,919
5626,805,943
5627,807,959
5628,814,970
5629,824,966
5630,835,957
5631,838,945
5632,844,936
5633,843,926
5634,841,919
5635,839,914
5636,835,911
5637,836,912
5638,834,913
5639,836,911
5640,837,913
5641,836,916
5642,839,917
5643,838,917
5644,838,917
5645,839,919
5646,838,914
5647,839,915
5648,834,912
5649,833,913
5650,833,913
5651,832,911
5652,832,912
5653,833,912
5654,833,912
5655,834,916
5656,835,916
5657,836,915
5658,836,917
5659,836,913
5660,834,913
5661,832,912
5662,832,908
5663,831,909
5664,829,909
5665,828,907
5666,830,911
5667,830,912
5668,831,914
5669,831,913
5670,830,913
5671,828,912
5672,822,909
5673,820,909
5674,824,908
5675,822,910
5676,821,907
5677,823,909
5678,823,909
5679,823,909
5680,825,913
5681,822,912
5682,822,910
5683,821,909
5684,819,906
5685,817,906
5686,816,905
5687,815,906
5688,813,905
5689,813,907
5690,812,907
5691,815,910
5692,815,910
5693,814,909
5694,812,909
5695,810,906
5696,809,903
5697,807,903
5698,806,902
5699,807,904
5700,806,902
5701,807,906
5702,806,906
5703,808,903
5704,811,906
5705,814,909
5706,814,909
5707,812,908
5708,815,905
5709,814,906
5710,814,904
5711,817,903
5712,816,905
5713,819,904
5714,822,906
5715,827,908
5716,830,909
5717,835,911
5718,839,908
5719,841,907
5720,845,905
5721,846,902
5722,848,902
5723,853,900
5724,858,902
5725,861,900
5726,867,903
5727,873,903
5728,875,906
5729,882,905
5730,881,907
5731,882,905
5732,884,906
5733,885,902
5734,884,903
5735,884,905
5736,883,905
5737,884,908
5738,885,910
5739,885,911
5740,885,914
5741,887,913
5742,885,915
5743,883,914
5744,882,912
5745,880,912
5746,878,910
5747,880,911
5748,879,912
5749,878,913
5750,878,913
5751,880,917
5752,880,918
5753,881,918
5754,880,919
5755,878,916
5756,875,915
5757,876,913
5758,874,913
5759,875,911
5760,873,912
5761,872,910
5762,872,913
5763,875,913
5764,876,916
5765,877,917
5766,876,916
5767,872,915
5768,872,914
5769,871,910
5770,870,908
5771,869,910
5772,869,910
5773,867,912
5774,868,913
5775,870,915
5776,871,916
5777,872,916
5778,871,915
5779,870,915
5780,870,912
5781,868,911
5782,867,910
5783,864,910
5784,864,910
5785,865,911
5786,868,912
5787,868,912
5788,870,914
5789,868,913
5790,870,914
5791,871,912
5792,870,910
5793,869,910
5794,871,908
5795,871,907
5796,873,910
5797,876,913
5798,879,917
5799,882,919
5800,884,921
5801,888,923
5802,888,922
5803,889,919
5804,887,915
5805,882,918
5806,884,914
5807,883,912
5808,883,911
5809,885,911
5810,889,914
5811,893,914
5812,894,918
5813,896,914
5814,894,913
5815,890,913
5816,888,907
5817,882,907
5818,878,904
5819,875,904
5820,872,904
5821,872,905
5822,874,907
5823,876,908
5824,876,910
5825,876,910
5826,870,907
5827,870,907
5828,862,909
5829,861,910
5830,859,909
5831,857,911
5832,855,914
5833,853,912
5834,853,915
5835,856,915
5836,857,917
5837,858,918
5838,856,915
5839,856,916
5840,855,914
5841,855,915
5842,854,911
5843,854,914
5844,852,915
5845,851,915
5846,853,915
5847,856,916
5848,857,921
5849,860,920
5850,859,921
5851,859,919
5852,858,918
5853,855,917
5854,857,918
5855,857,916
5856,860,916
5857,868,917
5858,882,917
5859,896,918
5860,915,917
5861,940,914
5862,965,909
5863,991,906
5864,1011,900
5865,1022,898
5866,1022,896
5867,1007,893
5868,982,891
5869,954,891
5870,928,889
5871,901,893
5872,868,897
5873,841,904
5874,817,910
5875,804,927
5876,802,945
5877,807,961
5878,811,965
5879,816,962
5880,822,957
5881,828,941
5882,831,933
5883,831,928
5884,832,925
5885,834,923
5886,833,920
5887,834,920
5888,834,917
5889,834,914
5890,833,911
5891,832,913
5892,833,913
5893,832,913
5894,830,916
5895,832,917
5896,832,918
5897,832,919
5898,833,919
5899,832,915
5900,832,914
5901,829,913
5902,827,911
5903,826,910
5904,827,910
5905,826,911
5906,826,912
5907,827,913
5908,829,917
5909,833,916
5910,829,916
5911,830,916
5912,827,914
5913,827,915
5914,824,911
5915,823,912
5916,822,911
5917,821,914
5918,822,912
5919,823,913
5920,822,915
5921,822,915
5922,819,913
5923,819,912
5924,819,912
5925,816,910
5926,816,909
5927,814,908
5928,813,908
5929,812,910
5930,812,913
5931,811,913
5932,811,914
5933,814,913
5934,813,912
5935,810,912
5936,809,910
5937,808,911
5938,806,908
5939,803,907
5940,803,908
5941,801,911
5942,803,911
5943,804,912
5944,803,914
5945,804,913
5946,805,912
5947,802,913
5948,801,911
5949,799,909
5950,798,908
5951,800,906
5952,798,908
5953,799,907
5954,802,909
5955,803,910
5956,806,912
5957,805,911
5958,808,911
5959,809,909
5960,808,908
5961,808,906
5962,808,907
5963,810,906
5964,811,907
5965,812,908
5966,816,910
5967,820,911
5968,827,911
5969,833,911
5970,835,911
5971,841,909
5972,844,909
5973,847,908
5974,849,904
5975,853,903
5976,857,902
5977,862,903
5978,867,908
5979,871,909
5980,871,910
5981,876,910
5982,878,910
5983,880,909
5984,879,908
5985,874,908
5986,877,908
5987,876,906
5988,876,907
5989,877,910
5990,877,909
5991,877,912
5992,877,917
5993,879,915
5994,876,917
5995,873,918
5996,875,915
5997,873,914
5998,870,914
5999,871,914
6000,869,914
6001,869,916
6002,871,918
6003,871,919
6004,871,920
6005,872,923
6006,873,922
6007,870,918
6008,868,916
6009,867,916
6010,866,913
6011,865,916
6012,865,915
6013,865,918
6014,866,917
6015,866,918
6016,868,918
6017,870,918
6018,869,917
6019,869,916
6020,867,914
6021,864,911
6022,863,911
6023,861,912
6024,860,909
6025,859,913
6026,860,915
6027,863,915
6028,866,917
6029,866,916
6030,867,917
6031,867,916
6032,866,913
6033,865,911
6034,864,913
6035,864,910
6036,864,912
6037,865,914
6038,865,916
6039,868,915
6040,869,918
6041,871,918
6042,873,917
6043,872,917
6044,872,914
6045,874,913
6046,875,914
6047,877,913
6048,879,913
6049,882,916
6050,883,917
6051,885,919
6052,887,922
6053,886,921
6054,886,920
6055,885,919
6056,885,915
6057,889,913
6058,888,911
6059,888,908
6060,887,910
6061,883,908
6062,881,909
6063,879,910
6064,875,912
6065,875,911
6066,876,911
6067,874,909
6068,876,907
6069,872,904
6070,868,903
6071,864,904
6072,860,906
6073,858,911
6074,856,916
6075,855,918
6076,855,920
6077,855,921
6078,854,917
6079,853,920
6080,852,916
6081,851,912
6082,851,911
6083,850,911
6084,849,912
6085,849,913
6086,851,916
6087,850,918
6088,853,921
6089,855,920
6090,856,918
6091,855,915
6092,855,916
6093,853,917
6094,853,915
6095,852,914
6096,850,916
6097,854,918
6098,854,918
6099,858,919
6100,862,923
6101,870,922
6102,883,922
6103,897,918
6104,917,914
6105,939,908
6106,966,903
6107,987,899
6108,1005,896
6109,1016,894
6110,1012,895
6111,996,893
6112,972,892
6113,947,890
6114,919,890
6115,889,891
6116,856,897
6117,824,904
6118,802,920
6119,792,941
6120,792,960
6121,799,969
6122,807,967
6123,818,955
6124,825,944
6125,830,932
6126,830,922
6127,832,919
6128,833,915
6129,831,913
6130,832,914
6131,830,914
6132,831,914
6133,829,916
6134,830,918
6135,832,919
6136,833,921
6137,832,918
6138,834,917
6139,833,917
6140,830,913
6141,826,913
6142,825,912
6143,825,913
6144,825,910
6145,827,912
6146,827,916
6147,829,915
6148,830,918
6149,831,917
6150,829,916
6151,829,915
6152,826,914
6153,825,913
6154,826,911
6155,824,911
6156,819,912
6157,820,914
6158,825,914
6159,825,916
6160,826,919
6161,826,919
6162,826,919
6163,825,917
6164,822,914
6165,820,915
6166,820,913
6167,816,910
6168,815,911
6169,816,910
6170,816,915
6171,816,914
6172,816,915
6173,818,916
6174,818,916
6175,817,914
6176,814,910
6177,812,908
6178,809,906
6179,811,905
6180,809,908
6181,808,909
6182,809,911
6183,810,912
6184,810,916
6185,810,915
6186,811,912
6187,809,911
6188,806,912
6189,805,910
6190,805,909
6191,804,906
6192,804,909
6193,804,909
6194,807,909
6195,807,911
6196,810,913
6197,811,912
6198,814,913
6199,814,911
6200,813,909
6201,813,908
6202,814,906
6203,815,905
6204,816,904
6205,817,904
6206,823,905
6207,825,909
6208,831,909
6209,837,909
6210,839,910
6211,843,907
6212,846,906
6213,845,905
6214,852,904
6215,854,900
6216,857,904
6217,862,903
6218,864,906
6219,868,906
6220,873,908
6221,876,908
6222,879,909
6223,878,910
6224,880,910
6225,879,909
6226,878,906
6227,878,908
6228,879,910
6229,879,910
6230,880,912
6231,882,915
6232,883,915
6233,881,915
6234,879,917
6235,879,915
6236,877,913
6237,876,913
6238,872,910
6239,874,909
6240,873,911
6241,873,914
6242,873,915
6243,873,915
6244,874,917
6245,875,917
6246,875,918
6247,875,917
6248,871,916
6249,870,914
6250,868,913
6251,869,914
6252,870,912
6253,869,913
6254,870,917
6255,870,915
6256,872,919
6257,872,918
6258,872,918
6259,871,916
6260,869,914
6261,867,913
6262,868,911
6263,864,908
6264,865,908
6265,865,906
6266,865,909
6267,866,912
6268,867,913
6269,866,913
6270,868,911
6271,868,911
6272,866,909
6273,866,911
6274,863,906
6275,861,905
6276,862,907
6277,865,907
6278,863,910
6279,864,910
6280,863,914
6281,867,913
6282,868,914
6283,868,913
6284,868,910
6285,870,912
6286,869,912
6287,868,910
6288,869,911
6289,872,912
6290,874,913
6291,877,917
6292,878,917
6293,884,918
6294,884,921
6295,887,920
6296,886,918
6297,880,917
6298,881,914
6299,882,910
6300,881,912
6301,883,914
6302,883,914
6303,886,913
6304,889,917
6305,893,915
6306,894,915
6307,894,911
6308,893,911
6309,890,908
6310,886,905
6311,880,905
6312,877,906
6313,873,905
6314,873,908
6315,873,907
6316,875,910
6317,877,911
6318,874,909
6319,873,910
6320,871,905
6321,867,906
6322,861,907
6323,858,910
6324,855,914
6325,856,916
6326,854,918
6327,855,920
6328,855,920
6329,854,920
6330,855,918
6331,854,917
6332,855,917
6333,853,916
6334,853,913
6335,852,914
6336,848,914
6337,850,914
6338,851,916
6339,851,915
6340,853,918
6341,854,917
6342,854,918
6343,852,918
6344,852,917
6345,850,916
6346,851,914
6347,853,915
6348,852,913
6349,854,915
6350,854,919
6351,858,921
6352,867,924
6353,874,923
6354,887,923
6355,901,919
6356,923,915
6357,946,909
6358,972,903
6359,992,898
6360,1005,897
6361,1009,894
6362,995,896
6363,980,896
6364,953,893
6365,929,890
6366,905,886
6367,879,888
6368,846,894
6369,814,899
6370,795,910
6371,788,926
6372,790,947
6373,794,963
6374,801,973
6375,807,969
6376,813,960
6377,822,947
6378,823,933
6379,825,925
6380,828,918
6381,830,917
6382,830,914
6383,834,912
6384,834,913
6385,832,914
6386,833,918
6387,835,920
6388,835,922
6389,835,920
6390,837,919
6391,834,921
6392,835,919
6393,831,917
6394,833,915
6395,828,912
6396,829,913
6397,829,912
6398,830,916
6399,831,916
6400,833,918
6401,834,916
6402,835,919
6403,834,917
6404,833,918
6405,833,915
6406,832,911
6407,827,914
6408,824,914
6409,825,914
6410,827,917
6411,827,917
6412,832,921
6413,832,922
6414,831,917
6415,830,917
6416,829,917
6417,828,915
6418,825,914
6419,823,914
6420,820,912
6421,822,913
6422,821,916
6423,823,916
6424,823,919
6425,824,919
6426,823,920
6427,823,915
6428,820,914
6429,817,911
6430,817,911
6431,816,908
6432,813,908
6433,814,911
6434,813,911
6435,814,914
6436,813,915
6437,815,915
6438,811,913
6439,812,914
6440,811,912
6441,807,909
6442,805,906
6443,806,907
6444,805,908
6445,806,908
6446,806,910
6447,809,909
6448,808,912
6449,812,911
6450,810,910
6451,813,910
6452,815,907
6453,815,908
6454,815,904
6455,815,906
6456,818,905
6457,818,903
6458,820,906
6459,826,907
6460,829,907
6461,831,909
6462,836,905
6463,838,908
6464,840,904
6465,843,904
6466,847,903
6467,850,901
6468,854,900
6469,858,899
6470,864,903
6471,870,906
6472,873,907
6473,874,909
6474,878,911
6475,880,911
6476,880,909
6477,881,907
6478,880,907
6479,879,907
6480,877,910
6481,878,910
6482,879,915
6483,880,915
6484,883,919
6485,883,920
6486,884,920
6487,881,918
6488,881,918
6489,878,917
6490,877,916
6491,875,914
6492,874,914
6493,874,912
6494,874,914
6495,873,915
6496,873,914
6497,872,920
6498,873,917
6499,872,918
6500,873,917
6501,870,917
6502,869,915
6503,866,914
6504,865,914
6505,867,914
6506,869,916
6507,870,919
6508,871,920
6509,872,921
6510,870,919
6511,868,921
6512,867,916
6513,868,916
6514,867,914
6515,864,915
6516,862,913
6517,866,913
6518,864,914
6519,863,915
6520,867,918
6521,866,918
6522,867,918
6523,867,915
6524,866,914
6525,865,913
6526,865,911
6527,864,910
6528,865,912
6529,865,912
6530,865,912
6531,867,914
6532,866,917
6533,866,917
6534,867,917
6535,868,917
6536,871,916
6537,867,914
6538,867,912
6539,865,911
6540,864,912
6541,866,912
6542,872,917
6543,875,918
6544,880,920
6545,885,923
6546,886,923
6547,886,921
6548,888,921
6549,886,922
6550,885,917
6551,882,917
6552,882,917
6553,882,917
6554,881,918
6555,884,917
6556,888,919
6557,892,918
6558,894,913
6559,893,914
6560,890,913
6561,885,909
6562,880,908
6563,875,910
6564,873,908
6565,869,907
6566,870,908
6567,873,910
6568,873,910
6569,873,912
6570,872,910
6571,866,911
6572,863,912
6573,860,914
6574,856,916
6575,852,916
6576,852,917
6577,853,920
6578,853,919
6579,854,918
6580,856,918
6581,858,921
6582,856,919
6583,857,919
6584,856,916
6585,856,915
6586,854,913
6587,854,910
6588,853,911
6589,852,911
6590,849,912
6591,856,915
6592,856,917
6593,858,918
6594,856,915
6595,856,917
6596,856,919
6597,857,915
6598,856,915
6599,856,915
6600,859,916
6601,863,917
6602,871,919
6603,880,922
6604,897,920
6605,917,918
6606,943,914
6607,969,909
6608,994,904
6609,1006,900
6610,1013,897
6611,999,894
6612,979,889
6613,953,887
6614,929,886
6615,899,886
6616,874,892
6617,844,896
6618,815,902
6619,799,912
6620,792,928
6621,791,948
6622,795,962
6623,799,968
6624,804,969
6625,806,960
6626,810,946
6627,817,934
6628,822,929
6629,825,925
6630,830,921
6631,834,919
6632,836,917
6633,836,916
6634,835,917
6635,831,913
6636,829,916
6637,832,915
6638,832,917
6639,832,918
6640,833,922
6641,835,923
6642,837,919
6643,835,918
6644,834,918
6645,833,917
6646,831,914
6647,831,911
6648,830,913
6649,828,913
6650,831,912
6651,830,915
6652,832,917
6653,833,918
6654,833,918
6655,834,917
6656,831,913
6657,829,913
6658,828,911
6659,827,911
6660,826,911
6661,824,913
6662,825,914
6663,825,916
6664,826,916
6665,827,915
6666,825,917
6667,825,916
6668,823,916
6669,822,914
6670,822,915
6671,820,912
6672,820,912
6673,819,910
6674,822,913
6675,819,913
6676,819,917
6677,817,915
6678,818,913
6679,815,914
6680,817,913
6681,814,910
6682,814,911
6683,811,911
6684,811,909
6685,811,910
6686,812,913
6687,811,911
6688,812,911
6689,813,914
6690,815,914
6691,811,912
6692,811,911
6693,811,910
6694,808,908
6695,808,907
6696,808,909
6697,810,909
6698,810,911
6699,813,911
6700,815,911
6701,814,915
6702,818,912
6703,819,912
6704,818,912
6705,818,910
6706,819,908
6707,821,909
6708,824,907
6709,828,908
6710,830,907
6711,837,908
6712,842,910
6713,848,908
6714,853,910
6715,856,908
6716,858,906
6717,864,905
6718,865,905
6719,866,900
6720,871,902
6721,873,903
6722,877,906
6723,880,907
6724,880,909
6725,882,911
6726,884,912
6727,885,910
6728,885,911
6729,882,910
6730,882,907
6731,881,910
6732,882,907
6733,881,911
6734,882,912
6735,884,914
6736,883,915
6737,882,921
6738,882,918
6739,882,917
6740,878,918
6741,877,918
6742,876,914
6743,873,914
6744,873,914
6745,870,913
6746,872,914
6747,874,918
6748,873,916
6749,876,920
6750,876,917
6751,877,917
6752,874,915
6753,871,915
6754,871,910
6755,870,912
6756,867,913
6757,867,912
6758,866,913
6759,869,918
6760,869,918
6761,869,919
6762,870,917
6763,870,918
6764,869,915
6765,868,915
6766,868,913
6767,866,910
6768,866,911
6769,865,912
6770,866,914
6771,866,917
6772,868,918
6773,870,919
6774,869,917
6775,869,915
6776,868,912
6777,866,913
6778,864,912
6779,864,911
6780,861,911
6781,862,911
6782,863,911
6783,865,914
6784,868,914
6785,869,915
6786,871,914
6787,869,915
6788,868,912
6789,866,912
6790,865,909
6791,864,910
6792,865,909
6793,869,913
6794,871,912
6795,876,915
6796,880,917
6797,882,923
6798,881,920
6799,883,919
6800,881,918
6801,884,918
6802,882,916
6803,881,915
6804,881,913
6805,880,914
6806,883,914
6807,884,917
6808,886,916
6809,890,914
6810,892,916
6811,890,915
6812,887,911
6813,883,910
6814,881,909
6815,876,908
6816,871,904
6817,868,904
6818,871,905
6819,873,906
6820,874,907
6821,873,908
6822,872,908
6823,870,906
6824,864,908
6825,858,907
6826,856,912
6827,849,914
6828,848,915
6829,850,917
6830,851,917
6831,850,918
6832,851,919
6833,852,920
6834,855,920
6835,853,918
6836,853,916
6837,851,915
6838,850,914
6839,852,912
6840,850,912
6841,851,913
6842,853,914
6843,854,916
6844,854,917
6845,857,919
6846,854,919
6847,853,919
6848,855,915
6849,853,915
6850,853,916
6851,850,915
6852,854,915
6853,855,916
6854,859,921
6855,869,920
6856,882,922
6857,901,920
6858,923,918
6859,949,913
6860,970,905
6861,990,898
6862,999,895
6863,999,891
6864,982,888
6865,957,883
6866,928,882
6867,900,883
6868,872,886
6869,842,894
6870,815,903
6871,797,914
6872,790,930
6873,789,949
6874,791,962
6875,798,970
6876,799,962
6877,805,951
6878,809,940
6879,814,930
6880,820,922
6881,825,922
6882,830,918
6883,835,918
6884,836,917
6885,832,913
6886,829,913
6887,827,913
6888,828,912
6889,828,913
6890,829,914
6891,833,915
6892,832,917
6893,834,916
6894,837,917
6895,836,917
6896,835,914
6897,833,910
6898,831,910
6899,830,912
6900,829,909
6901,829,911
6902,829,914
6903,829,914
6904,831,914
6905,826,916
6906,831,916
6907,831,916
6908,829,914
6909,829,911
6910,826,910
6911,825,910
6912,823,908
6913,825,910
6914,827,911
6915,826,913
6916,826,915
6917,826,914
6918,827,915
6919,826,915
6920,826,913
6921,824,911
6922,820,912
6923,818,907
6924,816,907
6925,814,909
6926,815,909
6927,815,914
6928,817,914
6929,820,914
6930,819,914
6931,816,912
6932,814,911
6933,811,907
6934,813,907
6935,811,906
6936,810,906
6937,810,908
6938,807,905
6939,808,907
6940,808,907
6941,810,910
6942,809,908
6943,810,907
6944,805,907
6945,806,904
6946,806,904
6947,804,903
6948,806,903
6949,804,905
6950,805,904
6951,809,905
6952,811,909
6953,812,909
6954,813,909
6955,813,908
6956,812,906
6957,813,906
6958,813,905
6959,813,904
6960,816,906
6961,817,903
6962,821,905
6963,826,908
6964,829,908
6965,836,907
6966,840,907
6967,845,905
6968,847,904
6969,850,901
6970,853,901
6971,856,898
6972,860,898
6973,861,900
6974,866,901
6975,870,901
6976,874,902
6977,876,906
6978,879,906
6979,877,906
6980,880,906
6981,880,905
6982,879,906
6983,879,904
6984,874,907
6985,876,908
6986,876,911
6987,877,910
6988,875,916
6989,876,916
6990,877,915
6991,877,916
6992,876,913
6993,874,912
6994,873,913
6995,868,913
6996,867,912
6997,867,914
6998,868,916
6999,869,915
7000,865,917
7001,866,919
7002,866,916
7003,866,914
7004,865,912
7005,863,912
7006,861,910
7007,861,909
7008,859,908
7009,859,909
7010,861,908
7011,860,912
7012,863,912
7013,864,917
7014,864,914
7015,864,913
7016,861,908
7017,863,910
7018,860,905
7019,860,908
7020,859,903
7021,859,906
7022,858,908
7023,860,911
7024,860,912
7025,860,913
7026,861,912
7027,858,911
7028,857,909
7029,858,909
7030,858,909
7031,856,907
7032,856,906
7033,857,906
7034,857,908
7035,857,910
7036,859,912
7037,860,911
7038,864,913
7039,861,911
7040,860,912
7041,858,909
7042,860,907
7043,857,909
7044,859,908
7045,862,908
7046,863,910
7047,867,912
7048,870,914
7049,871,915
7050,876,916
7051,876,917
7052,877,915
7053,876,913
7054,877,914
7055,873,910
7056,873,912
7057,875,910
7058,875,914
7059,878,914
7060,879,918
7061,879,916
7062,884,913
7063,883,911
7064,886,909
7065,883,909
7066,874,906
7067,870,903
7068,867,903
7069,864,901
7070,863,903
7071,863,904
7072,866,904
7073,868,905
7074,868,905
7075,864,905
7076,862,903
7077,856,906
7078,852,907
7079,847,910
7080,846,911
7081,844,911
7082,844,915
7083,845,917
7084,847,914
7085,848,917
7086,847,917
7087,848,916
7088,847,916
7089,847,913
7090,842,913
7091,842,912
7092,843,911
7093,844,912
7094,845,911
7095,843,913
7096,848,914
7097,850,916
7098,849,916
7099,852,917
7100,851,913
7101,850,912
7102,849,910
7103,847,911
7104,846,911
7105,845,914
7106,845,915
7107,850,916
7108,856,919
7109,868,920
7110,880,919
7111,895,916
7112,914,912
7113,936,908
7114,958,902
7115,977,895
7116,991,892
7117,997,891
7118,990,888
7119,971,890
7120,948,889
7121,925,885
7122,900,885
7123,873,887
7124,844,889
7125,810,896
7126,790,904
7127,781,920
7128,781,938
7129,787,956
7130,789,970
7131,796,970
7132,804,964
7133,803,953
7134,808,940
7135,811,927
7136,813,922
7137,815,917
7138,819,915
7139,819,912
7140,823,911
7141,826,910
7142,826,914
7143,827,914
7144,829,914
7145,828,917
7146,828,918
7147,829,916
7148,828,914
7149,826,912
7150,824,911
7151,822,910
7152,821,910
7153,821,911
7154,822,912
7155,822,911
7156,824,915
7157,825,917
7158,824,914
7159,824,915
7160,823,912
7161,819,910
7162,821,908
7163,820,907
7164,817,908
7165,816,906
7166,816,908
7167,821,910
7168,821,910
7169,822,912
7170,824,909
7171,820,913
7172,820,909
7173,818,908
7174,816,908
7175,815,905
7176,813,907
7177,810,905
7178,813,908
7179,814,909
7180,814,908
7181,814,912
7182,816,911
7183,816,909
7184,815,909
7185,813,909
7186,809,906
7187,807,906
7188,807,906
7189,807,905
7190,806,906
7191,802,910
7192,803,907
7193,805,910
7194,808,911
7195,806,910
7196,806,907
7197,804,905
7198,802,901
7199,801,899
7200,801,903
7201,800,902
7202,800,900
7203,801,903
7204,803,906
7205,804,905
7206,805,905
7207,807,903
7208,807,903
7209,808,900
7210,806,902
7211,806,901
7212,806,903
7213,808,900
7214,810,903
7215,811,906
7216,814,906
7217,815,906
7218,819,909
7219,818,906
7220,823,907
7221,825,902
7222,825,903
7223,830,899
7224,835,899
7225,838,898
7226,843,900
7227,851,902
7228,858,902
7229,862,905
7230,867,905
7231,871,904
7232,873,901
7233,874,902
7234,876,900
7235,877,899
7236,876,900
7237,877,902
7238,878,905
7239,880,907
7240,881,907
7241,882,908
7242,883,909
7243,880,910
7244,876,912
7245,875,910
7246,877,910
7247,872,909
7248,872,910
7249,869,910
7250,865,911
7251,870,913
7252,870,915
7253,870,915
7254,873,916
7255,873,915
7256,870,914
7257,872,911
7258,868,912
7259,866,909
7260,864,908
7261,864,909
7262,864,908
7263,864,911
7264,866,912
7265,866,914
7266,868,914
7267,866,914
7268,866,910
7269,863,906
7270,861,911
7271,861,906
7272,859,908
7273,857,908
7274,860,909
7275,860,909
7276,864,911
7277,864,911
7278,865,909
7279,863,910
7280,862,906
7281,859,907
7282,860,904
7283,858,907
7284,859,905
7285,857,904
7286,858,906
7287,858,909
7288,859,909
7289,860,912
7290,859,914
7291,860,914
7292,859,911
7293,860,909
7294,859,907
7295,858,907
7296,856,905
7297,853,905
7298,856,907
7299,858,910
7300,861,909
7301,861,912
7302,863,912
7303,862,911
7304,864,908
7305,862,908
7306,862,907
7307,863,907
7308,863,907
7309,865,908
7310,867,909
7311,871,912
7312,876,913
7313,876,915
7314,881,914
7315,880,917
7316,878,916
7317,876,916
7318,875,914
7319,873,909
7320,874,909
7321,877,911
7322,880,911
7323,883,911
7324,884,912
7325,885,912
7326,883,912
7327,881,908
7328,876,908
7329,871,904
7330,869,902
7331,868,903
7332,865,901
7333,865,899
7334,864,899
7335,867,901
7336,865,905
7337,865,906
7338,863,904
7339,859,908
7340,854,910
7341,851,913
7342,849,914
7343,847,916
7344,846,915
7345,843,914
7346,846,916
7347,848,915
7348,849,918
7349,848,917
7350,850,918
7351,851,917
7352,850,917
7353,848,915
7354,847,914
7355,845,911
7356,844,910
7357,846,911
7358,847,914
7359,848,912
7360,849,912
7361,849,917
7362,849,917
7363,851,916
7364,848,914
7365,849,916
7366,849,916
7367,847,915
7368,846,916
7369,850,913
7370,852,918
7371,867,919
7372,881,919
7373,900,918
7374,927,915
7375,953,907
7376,977,901
7377,999,896
7378,1000,888
7379,988,886
7380,961,882
7381,931,881
7382,897,883
7383,862,887
7384,826,894
7385,798,907
7386,786,925
7387,784,944
7388,787,963
7389,791,974
7390,795,975
7391,798,966
7392,803,948
7393,807,934
7394,809,928
7395,814,920
7396,819,918
7397,824,919
7398,830,919
7399,831,917
7400,829,915
7401,828,915
7402,826,914
7403,827,913
7404,824,911
7405,824,914
7406,824,915
7407,825,916
7408,828,916
7409,828,917
7410,832,918
7411,830,917
7412,826,917
7413,826,915
7414,826,916
7415,824,913
7416,825,912
7417,823,912
7418,824,914
7419,823,917
7420,827,916
7421,826,918
7422,829,918
7423,825,918
7424,823,918
7425,825,915
7426,821,912
7427,821,910
7428,819,909
7429,818,911
7430,818,911
7431,819,915
7432,820,916
7433,820,917
7434,821,915
7435,819,916
7436,820,913
7437,818,911
7438,815,912
7439,811,909
7440,810,909
7441,809,909
7442,809,911
7443,811,912
7444,809,911
7445,809,915
7446,814,915
7447,812,914
7448,809,913
7449,809,911
7450,807,910
7451,803,909
7452,802,907
7453,803,909
7454,803,908
7455,804,909
7456,806,910
7457,808,909
7458,807,909
7459,807,909
7460,804,908
7461,803,908
7462,803,906
7463,803,904
7464,801,904
7465,800,905
7466,806,906
7467,805,907
7468,809,910
7469,811,910
7470,814,910
7471,814,908
7472,814,906
7473,814,907
7474,815,902
7475,813,903
7476,816,902
7477,820,903
7478,825,905
7479,829,906
7480,836,906
7481,838,906
7482,843,907
7483,847,906
7484,852,904
7485,854,904
7486,857,904
7487,859,902
7488,863,899
7489,866,900
7490,868,901
7491,872,901
7492,874,904
7493,876,907
7494,879,908
7495,878,908
7496,876,909
7497,877,905
7498,874,906
7499,874,905
7500,871,904
7501,869,906
7502,869,911
7503,871,910
7504,871,912
7505,872,915
7506,872,916
7507,872,916
7508,870,914
7509,869,913
7510,865,913
7511,865,913
7512,864,911
7513,862,911
7514,863,912
7515,861,915
7516,865,915
7517,864,918
7518,866,916
7519,865,914
7520,864,912
7521,863,913
7522,861,911
7523,860,909
7524,859,909
7525,856,908
7526,859,911
7527,857,913
7528,859,912
7529,859,914
7530,862,916
7531,861,913
7532,861,913
7533,860,910
7534,858,909
7535,859,908
7536,855,908
7537,855,907
7538,854,909
7539,853,910
7540,857,913
7541,856,913
7542,856,915
7543,856,913
7544,856,914
7545,853,913
7546,853,912
7547,856,909
7548,854,910
7549,855,909
7550,854,910
7551,857,909
7552,859,911
7553,860,914
7554,861,914
7555,861,912
7556,859,912
7557,858,912
7558,856,909
7559,855,909
7560,853,909
7561,854,908
7562,854,908
7563,857,911
7564,862,912
7565,863,913
7566,867,914
7567,872,913
7568,871,917
7569,874,912
7570,872,913
7571,872,913
7572,873,913
7573,871,913
7574,872,913
7575,873,913
7576,874,915
7577,877,920
7578,879,917
7579,880,915
7580,883,915
7581,883,913
7582,877,910
7583,874,908
7584,870,907
7585,866,907
7586,863,907
7587,865,908
7588,865,907
7589,865,908
7590,867,907
7591,866,907
7592,863,903
7593,858,903
7594,855,904
7595,852,908
7596,846,909
7597,843,914
7598,842,915
7599,842,916
7600,842,916
7601,843,918
7602,846,917
7603,845,919
7604,845,917
7605,846,916
7606,843,913
7607,842,912
7608,840,911
7609,842,912
7610,842,913
7611,843,916
7612,844,915
7613,845,918
7614,847,918
7615,846,917
7616,845,917
7617,845,916
7618,844,915
7619,844,913
7620,844,913
7621,843,913
7622,844,918
7623,848,918
7624,852,920
7625,858,924
7626,873,923
7627,887,922
7628,904,915
7629,926,910
7630,949,905
7631,970,897
7632,988,895
7633,996,892
7634,992,892
7635,975,890
7636,953,892
7637,928,891
7638,905,892
7639,878,894
7640,848,896
7641,816,903
7642,792,914
7643,781,932
7644,782,951
7645,784,972
7646,787,983
7647,789,985
7648,795,975
7649,796,960
7650,800,946
7651,806,935
7652,810,927
7653,813,919
7654,818,918
7655,819,916
7656,820,914
7657,820,913
7658,818,913
7659,819,916
7660,820,916
7661,821,918
7662,823,917
7663,825,917
7664,825,916
7665,825,915
7666,823,915
7667,820,913
7668,816,913
7669,818,910
7670,818,913
7671,817,913
7672,817,911
7673,820,914
7674,822,915
7675,818,914
7676,820,913
7677,817,910
7678,816,908
7679,815,909
7680,815,906
7681,813,908
7682,812,910
7683,813,912
7684,815,913
7685,815,913
7686,815,913
7687,813,913
7688,812,912
7689,811,911
7690,810,910
7691,810,908
7692,806,907
7693,807,910
7694,807,909
7695,809,908
7696,807,911
7697,809,912
7698,810,913
7699,809,913
7700,807,911
7701,808,909
7702,805,908
7703,804,907
7704,804,907
7705,802,908
7706,802,908
7707,802,910
7708,803,910
7709,804,912
7710,804,911
7711,804,911
7712,805,910
7713,800,911
7714,800,906
7715,797,906
7716,798,904
7717,797,904
7718,797,905
7719,800,906
7720,801,908
7721,802,909
7722,802,908
7723,805,909
7724,806,906
7725,806,906
7726,805,904
7727,804,901
7728,804,901
7729,804,898
7730,806,900
7731,810,904
7732,814,904
7733,819,906
7734,821,905
7735,824,906
7736,828,907
7737,834,903
7738,834,900
7739,838,898
7740,842,897
7741,846,899
7742,853,899
7743,857,900
7744,863,901
7745,867,903
7746,868,904
7747,870,903
7748,870,903
7749,872,903
7750,868,902
7751,868,899
7752,868,900
7753,865,903
7754,867,908
7755,869,908
7756,870,911
7757,871,913
7758,870,913
7759,868,913
7760,866,913
7761,866,914
7762,863,913
7763,860,911
7764,859,908
7765,857,911
7766,855,911
7767,858,912
7768,858,913
7769,859,917
7770,860,918
7771,861,916
7772,859,914
7773,859,913
7774,858,911
7775,857,909
7776,856,909
7777,855,908
7778,853,910
7779,854,914
7780,853,912
7781,854,916
7782,855,916
7783,855,912
7784,853,912
7785,850,910
7786,849,908
7787,848,907
7788,847,907
7789,849,910
7790,849,909
7791,850,911
7792,852,912
7793,851,910
7794,851,911
7795,852,912
7796,852,912
7797,851,908
7798,850,909
7799,848,910
7800,846,907
7801,846,906
7802,845,907
7803,848,912
7804,848,911
7805,848,911
7806,853,910
7807,852,912
7808,852,913
7809,852,910
7810,850,908
7811,850,905
7812,847,904
7813,847,905
7814,850,905
7815,850,908
7816,854,911
7817,853,912
7818,857,914
7819,860,913
7820,862,913
7821,863,911
7822,863,912
7823,863,911
7824,861,908
7825,861,909
7826,863,908
7827,866,909
7828,867,913
7829,869,913
7830,870,914
7831,870,913
7832,872,915
7833,875,910
7834,873,908
7835,870,906
7836,868,908
7837,866,907
7838,862,904
7839,862,904
7840,862,906
7841,859,908
7842,859,908
7843,861,906
7844,859,903
7845,857,902
7846,854,901
7847,852,901
7848,846,901
7849,839,903
7850,842,908
7851,840,912
7852,841,915
7853,841,917
7854,843,919
7855,841,918
7856,839,917
7857,840,917
7858,837,914
7859,837,909
7860,837,911
7861,837,910
7862,836,909
7863,839,912
7864,841,913
7865,841,917
7866,841,917
7867,841,918
7868,841,919
7869,839,916
7870,840,915
7871,840,910
7872,838,909
7873,839,910
7874,839,914
7875,839,916
7876,841,918
7877,842,918
7878,845,920
7879,854,918
7880,862,920
7881,877,915
7882,895,911
7883,917,906
7884,938,902
7885,963,896
7886,983,892
7887,992,889
7888,987,888
7889,972,889
7890,948,891
7891,922,888
7892,893,887
7893,858,892
7894,826,900
7895,799,911
7896,785,932
7897,787,955
7898,793,979
7899,798,997
7900,799,1003
7901,800,992
7902,800,976
7903,800,954
7904,803,935
7905,809,923
7906,813,914
7907,815,910
7908,815,908
7909,818,908
7910,819,909
7911,821,910
7912,818,910
7913,819,913
7914,816,914
7915,819,912
7916,819,910
7917,818,911
7918,818,910
7919,818,908
7920,817,907
7921,816,905
7922,817,904
7923,819,907
7924,821,909
7925,820,909
7926,819,908
7927,821,907
7928,821,905
7929,818,904
7930,817,906
7931,815,900
7932,811,903
7933,809,901
7934,809,904
7935,810,903
7936,812,907
7937,813,906
7938,815,907
7939,812,908
7940,812,906
7941,810,905
7942,809,903
7943,807,902
7944,806,899
7945,804,900
7946,805,903
7947,805,904
7948,804,905
7949,807,908
7950,808,910
7951,807,908
7952,805,908
7953,806,906
7954,802,905
7955,801,902
7956,797,901
7957,797,904
7958,796,903
7959,795,903
7960,798,905
7961,798,905
7962,799,906
7963,800,906
7964,797,903
7965,798,902
7966,796,900
7967,796,897
7968,796,898
7969,793,896
7970,794,895
7971,795,898
7972,797,898
7973,796,900
7974,798,902
7975,799,901
7976,799,900
7977,799,899
7978,800,897
7979,799,893
7980,800,893
7981,800,894
7982,804,894
7983,805,896
7984,807,898
7985,811,898
7986,815,902
7987,817,901
7988,820,901
7989,822,896
7990,822,894
7991,826,895
7992,825,894
7993,828,895
7994,835,893
7995,840,895
7996,844,895
7997,849,895
7998,851,899
7999,855,897
8000,859,898
8001,860,894
8002,860,892
8003,862,893
8004,862,893
8005,863,893
8006,865,896
8007,868,898
8008,870,901
8009,872,904
8010,870,906
8011,873,905
8012,871,906
8013,868,906
8014,868,906
8015,864,906
8016,866,907
8017,866,907
8018,864,906
8019,864,907
8020,862,909
8021,864,912
8022,866,913
8023,866,911
8024,864,911
8025,860,913
8026,856,911
8027,855,908
8028,855,910
8029,857,909
8030,857,909
8031,856,912
8032,858,911
8033,856,911
8034,857,914
8035,857,912
8036,856,909
8037,858,909
8038,854,907
8039,854,907
8040,852,905
8041,853,904
8042,850,904
8043,851,905
8044,850,906
8045,853,907
8046,854,911
8047,855,909
8048,855,909
8049,853,907
8050,850,906
8051,850,904
8052,850,901
8053,849,903
8054,849,906
8055,851,906
8056,851,907
8057,852,907
8058,853,912
8059,853,911
8060,853,909
8061,851,909
8062,851,907
8063,849,903
8064,848,904
8065,848,904
8066,849,903
8067,851,907
8068,851,907
8069,851,908
8070,850,910
8071,852,907
8072,854,907
8073,855,906
8074,853,903
8075,853,902
8076,851,904
8077,852,905
8078,853,907
8079,856,909
8080,860,909
8081,863,909
8082,868,912
8083,870,913
8084,869,910
8085,869,911
8086,866,909
8087,867,907
8088,864,907
8089,864,907
8090,866,909
8091,867,909
8092,871,910
8093,872,912
8094,876,910
8095,879,909
8096,877,909
8097,876,907
8098,874,905
8099,870,905
8100,865,905
8101,861,902
8102,857,901
8103,859,902
8104,857,904
8105,859,904
8106,859,903
8107,858,902
8108,857,900
8109,853,901
8110,851,899
8111,846,902
8112,846,906
8113,843,907
8114,843,907
8115,842,911
8116,841,910
8117,843,912
8118,842,914
8119,846,911
8120,846,912
8121,843,908
8122,842,908
8123,842,907
8124,838,907
8125,841,907
8126,841,907
8127,840,910
8128,842,910
8129,842,912
8130,842,913
8131,843,914
8132,843,912
8133,842,912
8134,843,909
8135,842,908
8136,839,908
8137,840,907
8138,839,907
8139,844,912
8140,847,914
8141,853,917
8142,864,918
8143,876,914
8144,891,913
8145,910,908
8146,931,902
8147,955,896
8148,978,892
8149,997,888
8150,1005,887
8151,1002,886
8152,988,885
8153,964,887
8154,942,885
8155,917,887
8156,890,887
8157,859,890
8158,824,897
8159,802,910
8160,786,928
8161,787,950
8162,792,973
8163,797,990
8164,798,991
8165,799,981
8166,801,965
8167,806,943
8168,809,928
8169,814,919
8170,818,911
8171,822,909
8172,822,907
8173,822,907
8174,824,907
8175,825,907
8176,824,909
8177,825,910
8178,824,912
8179,823,912
8180,825,909
8181,822,908
8182,819,906
8183,817,904
8184,817,905
8185,822,904
8186,820,907
8187,820,908
8188,819,910
8189,819,909
8190,820,911
8191,824,912
8192,824,909
8193,823,906
8194,820,908
8195,821,906
8196,819,903
8197,818,905
8198,816,905
8199,816,906
8200,815,907
8201,819,908
8202,818,910
8203,820,910
8204,821,905
8205,819,905
8206,817,903
8207,815,902
8208,813,901
8209,813,901
8210,810,902
8211,811,905
8212,814,905
8213,812,906
8214,815,907
8215,814,908
8216,813,906
8217,811,906
8218,809,903
8219,807,905
8220,805,901
8221,805,902
8222,804,901
8223,805,903
8224,801,903
8225,803,906
8226,805,906
8227,806,906
8228,807,905
8229,804,904
8230,802,901
8231,802,899
8232,802,898
8233,799,896
8234,802,898
8235,801,897
8236,801,900
8237,803,901
8238,805,901
8239,804,901
8240,803,901
8241,804,898
8242,804,896
8243,806,896
8244,806,896
8245,804,894
8246,806,894
8247,809,897
8248,811,897
8249,815,899
8250,817,898
8251,818,900
8252,820,899
8253,822,899
8254,823,895
8255,828,896
8256,829,895
8257,835,895
8258,839,893
8259,843,894
8260,851,896
8261,856,897
8262,861,898
8263,862,897
8264,864,898
8265,865,897
8266,869,897
8267,870,897
8268,870,895
8269,871,896
8270,874,900
8271,873,900
8272,875,905
8273,876,905
8274,877,909
8275,876,906
8276,875,907
8277,876,908
8278,875,907
8279,870,909
8280,870,908
8281,867,905
8282,867,907
8283,865,911
8284,866,911
8285,869,913
8286,869,913
8287,871,914
8288,870,913
8289,868,913
8290,865,909
8291,865,910
8292,863,907
8293,863,908
8294,862,909
8295,863,909
8296,863,910
8297,864,911
8298,862,914
8299,866,911
8300,864,912
8301,863,909
8302,861,907
8303,861,906
8304,859,904
8305,861,906
8306,859,906
8307,859,906
8308,861,907
8309,860,910
8310,862,910
8311,862,910
8312,861,909
8313,861,907
8314,859,907
8315,859,906
8316,857,902
8317,856,906
8318,859,904
8319,857,908
8320,858,909
8321,859,912
8322,861,914
8323,863,911
8324,862,911
8325,862,908
8326,862,906
8327,859,907
8328,860,905
8329,859,906
8330,859,904
8331,862,906
8332,863,906
8333,864,908
8334,868,911
8335,871,913
8336,871,911
8337,875,909
8338,876,909
8339,878,908
8340,878,911
8341,878,910
8342,878,909
8343,876,911
8344,877,912
8345,877,913
8346,879,914
8347,882,914
8348,885,913
8349,886,909
8350,885,908
8351,886,905
8352,883,902
8353,880,903
8354,876,903
8355,873,904
8356,869,906
8357,867,907
8358,868,909
8359,869,906
8360,871,906
8361,871,903
8362,867,898
8363,867,898
8364,859,896
8365,855,897
8366,854,899
8367,853,903
8368,853,910
8369,853,914
8370,851,916
8371,853,919
8372,852,917
8373,850,915
8374,850,911
8375,849,911
8376,846,909
8377,845,906
8378,845,909
8379,845,910
8380,846,913
8381,846,914
8382,851,917
8383,851,916
8384,853,913
8385,850,915
8386,850,911
8387,849,911
8388,849,910
8389,848,911
8390,850,911
8391,850,912
8392,850,915
8393,854,917
8394,854,916
8395,853,918
8396,854,918
8397,857,917
8398,865,916
8399,878,913
8400,899,909
8401,923,907
8402,955,900
8403,984,897
8404,1010,896
8405,1023,895
8406,1014,892
8407,991,890
8408,959,888
8409,923,884
8410,888,885
8411,852,887
8412,818,895
8413,796,907
8414,787,924
8415,788,946
8416,797,964
8417,803,975
8418,810,974
8419,816,963
8420,818,950
8421,820,935
8422,820,926
8423,820,918
8424,821,915
8425,823,910
8426,824,910
8427,826,910
8428,827,910
8429,830,916
8430,830,914
8431,830,915
8432,830,913
8433,829,912
8434,828,912
8435,827,911
8436,825,909
8437,824,911
8438,824,909
8439,826,910
8440,826,914
8441,824,916
8442,824,916
8443,826,915
8444,827,912
8445,823,913
8446,823,913
8447,822,911
8448,822,909
8449,820,910
8450,820,910
8451,822,912
8452,823,914
8453,824,911
8454,827,914
8455,826,914
8456,824,913
8457,821,913
8458,817,909
8459,816,908
8460,815,904
8461,817,907
8462,817,907
8463,816,907
8464,818,911
8465,818,908
8466,817,910
8467,818,909
8468,816,910
8469,817,910
8470,815,909
8471,813,905
8472,812,903
8473,812,905
8474,809,903
8475,807,908
8476,806,906
8477,806,906
8478,808,909
8479,807,907
8480,805,910
8481,805,907
8482,803,905
8483,800,905
8484,799,904
8485,797,903
8486,797,902
8487,800,905
8488,800,905
8489,803,906
8490,801,907
8491,804,907
8492,803,904
8493,805,902
8494,804,901
8495,804,900
8496,802,899
8497,800,899
8498,803,899
8499,802,903
8500,805,905
8501,809,904
8502,813,906
8503,815,905
8504,817,906
8505,820,905
8506,822,901
8507,824,901
8508,826,899
8509,830,896
8510,834,899
8511,839,900
8512,842,901
8513,848,903
8514,855,903
8515,858,905
8516,864,903
8517,867,903
8518,869,903
8519,869,901
8520,872,901
8521,872,899
8522,874,901
8523,876,903
8524,879,905
8525,879,908
8526,881,910
8527,878,911
8528,878,910
8529,878,910
8530,877,909
8531,875,907
8532,875,908
8533,874,907
8534,873,908
8535,874,909
8536,873,913
8537,875,914
8538,875,915
8539,876,914
8540,874,912
8541,873,914
8542,871,913
8543,869,911
8544,868,912
8545,868,910
8546,868,911
8547,866,913
8548,868,911
8549,867,914
8550,869,918
8551,870,917
8552,871,913
8553,868,913
8554,867,910
8555,865,907
8556,863,906
8557,863,905
8558,863,906
8559,864,910
8560,865,909
8561,866,912
8562,864,911
8563,863,913
8564,865,911
8565,864,910
8566,864,909
8567,861,908
8568,859,907
8569,862,908
8570,861,904
8571,862,907
8572,863,909
8573,864,911
8574,863,913
8575,864,912
8576,863,913
8577,864,912
8578,863,909
8579,864,908
8580,862,908
8581,860,906
8582,859,908
8583,863,910
8584,862,909
8585,866,909
8586,867,911
8587,870,913
8588,871,913
8589,871,911
8590,869,912
8591,870,909
8592,871,907
8593,873,911
8594,874,909
8595,878,913
8596,880,914
8597,882,914
8598,884,915
8599,885,917
8600,885,916
8601,885,915
8602,884,912
8603,883,911
8604,884,906
8605,887,909
8606,887,910
8607,887,911
8608,884,908
8609,885,909
8610,880,911
8611,877,907
8612,874,908
8613,871,907
8614,870,904
8615,869,905
8616,870,904
8617,869,901
8618,866,899
8619,863,902
8620,861,904
8621,859,906
8622,858,913
8623,856,916
8624,852,915
8625,851,915
8626,851,912
8627,849,913
8628,849,908
8629,849,906
8630,848,912
8631,849,910
8632,852,911
8633,853,915
8634,853,918
8635,853,915
8636,853,914
8637,849,913
8638,851,912
8639,850,912
8640,851,913
8641,850,912
8642,849,914
8643,851,911
8644,852,917
8645,854,919
8646,855,921
8647,857,921
8648,856,920
8649,860,919
8650,870,915
8651,880,915
8652,892,913
8653,912,911
8654,935,907
8655,964,905
8656,989,903
8657,1012,899
8658,1021,897
8659,1014,895
8660,992,894
8661,962,892
8662,933,885
8663,900,884
8664,867,887
8665,833,891
8666,804,903
8667,791,921
8668,789,944
8669,790,960
8670,798,975
8671,805,975
8672,811,963
8673,816,950
8674,818,936
8675,817,925
8676,819,918
8677,822,914
8678,825,916
8679,829,914
8680,831,916
8681,831,916
8682,835,915
8683,833,916
8684,832,913
8685,831,913
8686,832,911
8687,828,909
8688,826,909
8689,827,909
8690,829,907
8691,829,908
8692,829,911
8693,831,912
8694,831,914
8695,833,914
8696,831,911
8697,830,912
8698,831,913
8699,827,913
8700,828,913
8701,822,911
8702,824,913
8703,825,911
8704,826,913
8705,826,916
8706,826,918
8707,827,916
8708,825,913
8709,822,915
8710,824,911
8711,819,910
8712,821,909
8713,818,908
8714,817,909
8715,817,910
8716,816,911
8717,816,911
8718,817,913
8719,821,912
8720,819,913
8721,815,911
8722,813,909
8723,810,908
8724,810,906
8725,808,906
8726,807,907
8727,808,909
8728,808,910
8729,809,911
8730,810,911
8731,811,911
8732,810,908
8733,808,909
8734,805,909
8735,804,908
8736,803,907
8737,802,906
8738,802,906
8739,802,907
8740,806,907
8741,806,907
8742,808,911
8743,809,907
8744,805,910
8745,808,908
8746,808,906
8747,805,905
8748,807,902
8749,807,903
8750,808,903
8751,809,904
8752,812,911
8753,816,908
8754,819,910
8755,825,907
8756,826,908
8757,828,906
8758,832,906
8759,837,903
8760,839,903
8761,843,900
8762,847,901
8763,851,904
8764,859,905
8765,865,904
8766,870,906
8767,871,910
8768,874,908
8769,876,908
8770,879,908
8771,880,908
8772,878,907
8773,878,907
8774,877,907
8775,876,911
8776,879,912
8777,880,912
8778,879,915
8779,883,917
8780,880,917
8781,881,915
8782,876,914
8783,874,914
8784,871,913
8785,870,910
8786,870,911
8787,870,912
8788,871,915
8789,873,920
8790,872,916
8791,873,917
8792,872,917
8793,871,916
8794,870,915
8795,866,913
8796,867,913
8797,867,912
8798,866,915
8799,866,916
8800,866,914
8801,868,918
8802,871,918
8803,871,917
8804,870,917
8805,869,914
8806,866,914
8807,866,912
8808,864,909
8809,859,911
8810,859,910
8811,860,911
8812,860,912
8813,861,913
8814,865,915
8815,866,915
8816,866,915
8817,866,913
8818,862,911
8819,865,909
8820,862,910
8821,861,908
8822,862,909
8823,862,912
8824,861,912
8825,864,914
8826,865,914
8827,868,915
8828,866,913
8829,868,914
8830,866,911
8831,866,911
8832,867,909
8833,866,908
8834,863,912
8835,864,911
8836,866,913
8837,870,916
8838,872,917
8839,875,916
8840,877,915
8841,879,915
8842,880,912
8843,877,913
8844,879,911
8845,881,908
8846,880,913
8847,880,911
8848,883,913
8849,883,914
8850,887,916
8851,889,917
8852,889,916
8853,889,914
8854,891,912
8855,889,912
8856,886,907
8857,882,906
8858,877,906
8859,876,908
8860,876,909
8861,871,909
8862,873,911
8863,874,911
8864,875,911
8865,874,907
8866,873,905
8867,871,903
8868,865,904
8869,861,906
8870,856,908
8871,857,912
8872,855,916
8873,856,918
8874,855,922
8875,855,918
8876,855,918
8877,852,918
8878,854,914
8879,852,913
8880,852,912
8881,850,909
8882,849,912
8883,850,914
8884,853,916
8885,853,917
8886,857,917
8887,860,918
8888,858,917
8889,856,917
8890,854,918
8891,853,914
8892,852,913
8893,854,912
8894,850,913
8895,852,916
8896,852,919
8897,857,921
8898,860,924
8899,864,925
8900,868,923
8901,878,920
8902,889,918
8903,910,914
8904,930,910
8905,956,902
8906,981,897
8907,1000,895
8908,1014,893
8909,1007,891
8910,988,889
8911,958,887
8912,926,883
8913,893,885
8914,859,888
8915,822,894
8916,797,902
8917,785,920
8918,786,941
8919,792,963
8920,797,971
8921,804,974
8922,806,969
8923,813,955
8924,817,940
8925,820,931
8926,823,924
8927,822,920
8928,827,915
8929,828,912
8930,831,914
8931,832,914
8932,834,914
8933,836,915
8934,836,918
8935,834,918
8936,836,916
8937,835,917
8938,835,914
8939,832,914
8940,832,909
8941,833,911
8942,833,910
8943,834,910
8944,831,910
8945,834,913
8946,834,917
8947,838,914
8948,837,916
8949,833,917
8950,833,913
8951,830,912
8952,829,912
8953,829,910
8954,828,911
8955,829,911
8956,829,912
8957,826,915
8958,829,914
8959,829,917
8960,829,916
8961,829,916
8962,828,912
8963,827,912
8964,827,910
8965,824,910
8966,821,909
8967,824,912
8968,825,909
8969,825,912
8970,824,915
8971,824,912
8972,823,911
8973,824,911
8974,823,909
8975,819,907
8976,818,907
8977,816,905
8978,816,906
8979,814,907
8980,815,909
8981,815,910
8982,815,911
8983,816,911
8984,816,911
8985,814,908
8986,813,908
8987,811,906
8988,810,904
8989,809,905
8990,809,906
8991,811,906
8992,809,908
8993,808,909
8994,811,909
8995,811,911
8996,811,909
8997,811,908
8998,811,905
8999,812,903
9000,811,905
9001,812,902
9002,811,902
9003,811,905
9004,816,902
9005,820,903
9006,821,904
9007,825,905
9008,825,906
9009,828,904
9010,828,903
9011,829,903
9012,832,899
9013,834,899
9014,837,899
9015,842,900
9016,847,903
9017,850,904
9018,856,906
9019,861,905
9020,865,904
9021,868,901
9022,869,899
9023,871,901
9024,874,899
9025,874,901
9026,873,900
9027,878,900
9028,880,905
9029,883,907
9030,883,908
9031,887,913
9032,885,909
9033,884,913
9034,883,912
9035,882,909
9036,880,906
9037,880,905
9038,879,909
9039,878,908
9040,880,911
9041,881,912
9042,879,914
9043,878,917
9044,880,913
9045,879,914
9046,877,909
9047,875,909
9048,875,910
9049,874,910
9050,872,909
9051,871,909
9052,870,910
9053,872,914
9054,874,915
9055,873,916
9056,872,916
9057,872,916
9058,869,914
9059,869,910
9060,869,912
9061,866,909
9062,867,912
9063,866,914
9064,867,913
9065,868,914
9066,870,914
9067,869,916
9068,873,914
9069,872,914
9070,870,911
9071,868,909
9072,868,909
9073,868,906
9074,867,907
9075,869,909
9076,866,911
9077,869,913
9078,869,912
9079,871,913
9080,866,914
9081,868,913
9082,869,913
9083,869,911
9084,869,908
9085,866,907
9086,866,909
9087,865,908
9088,868,911
9089,870,913
9090,871,914
9091,873,915
9092,874,914
9093,875,915
9094,872,915
9095,871,912
9096,873,912
9097,872,911
9098,871,910
9099,876,912
9100,878,912
9101,883,913
9102,886,915
9103,887,916
9104,886,918
9105,888,916
9106,888,915
9107,888,913
9108,887,912
9109,886,910
9110,885,914
9111,886,911
9112,891,916
9113,895,914
9114,898,918
9115,898,916
9116,893,914
9117,889,912
9118,885,913
9119,882,909
9120,879,908
9121,875,907
9122,874,906
9123,874,907
9124,876,907
9125,876,908
9126,876,910
9127,876,909
9128,871,911
9129,869,910
9130,865,915
9131,860,916
9132,858,914
9133,856,913
9134,854,914
9135,855,915
9136,853,916
9137,854,916
9138,854,916
9139,857,917
9140,859,915
9141,857,915
9142,859,914
9143,855,912
9144,855,912
9145,854,910
9146,854,912
9147,854,912
9148,856,916
9149,856,918
9150,860,916
9151,859,920
9152,859,916
9153,861,915
9154,859,914
9155,859,916
9156,858,915
9157,858,915
9158,858,916
9159,865,918
9160,873,921
9161,885,922
9162,899,922
9163,921,918
9164,944,914
9165,969,908
9166,992,900
9167,1008,894
9168,1016,889
9169,1012,888
9170,995,886
9171,970,885
9172,945,884
9173,918,885
9174,888,886
9175,859,891
9176,826,899
9177,802,910
9178,792,927
9179,787,946
9180,793,962
9181,801,971
9182,804,971
9183,809,963
9184,813,952
9185,816,942
9186,822,932
9187,828,926
9188,831,924
9189,835,921
9190,837,920
9191,836,915
9192,837,913
9193,836,913
9194,835,912
9195,832,917
9196,832,916
9197,834,916
9198,836,916
9199,839,917
9200,838,917
9201,836,914
9202,833,915
9203,833,913
9204,831,913
9205,829,910
9206,831,912
9207,830,912
9208,832,913
9209,831,916
9210,832,918
9211,832,917
9212,831,918
9213,830,918
9214,831,915
9215,828,912
9216,828,912
9217,825,911
9218,826,912
9219,825,913
9220,825,913
9221,826,915
9222,827,917
9223,831,920
9224,827,917
9225,828,917
9226,825,916
9227,824,910
9228,822,909
9229,822,910
9230,821,909
9231,821,908
9232,819,912
9233,818,913
9234,818,913
9235,819,915
9236,820,913
9237,819,913
9238,818,908
9239,816,908
9240,814,910
9241,813,906
9242,811,906
9243,811,906
9244,811,908
9245,811,909
9246,813,909
9247,813,911
9248,813,909
9249,814,909
9250,812,909
9251,812,907
9252,811,905
9253,810,905
9254,809,904
9255,811,905
9256,811,906
9257,813,908
9258,812,909
9259,815,912
9260,816,908
9261,818,907
9262,817,906
9263,817,904
9264,818,899
9265,820,901
9266,820,901
9267,824,904
9268,826,905
9269,830,907
9270,835,908
9271,840,908
9272,844,907
9273,846,905
9274,850,905
9275,852,901
9276,855,899
9277,860,899
9278,862,901
9279,866,901
9280,870,904
9281,875,907
9282,880,906
9283,881,908
9284,882,909
9285,883,908
9286,883,907
9287,881,908
9288,880,906
9289,879,908
9290,877,907
9291,877,909
9292,879,910
9293,880,913
9294,881,916
9295,882,914
9296,880,915
9297,879,916
9298,876,913
9299,873,914
9300,871,912
9301,869,911
9302,867,908
9303,868,910
9304,871,914
9305,872,916
9306,874,919
